##TITLE=Column 1
##JCAMP-DX=4.24
##DATA TYPE=INFRARED SPECTRUM
##Method:,Column 1,Built-In Reference,,,Model Name,NIR-S-G1
##Host Date-Time:,27/10/20 @ 13:11:34,13/5/20 @ 16:0:36,,,GUI Version,3.6.4
##Header Version:,1,1,,,Tiva Version,2.4.4.0
##System Temp (C):,47.86,34.7,,,DLPC Version,2.2.0
##Detector Temp (C),0,0,,,UUID,DE:67:0C:88:67:4B:68:21
##Humidity (%):,30.4,35.27,,,Main Board Version,D
##Lamp PD:,1920,1767
##Shift Vector Coefficients:,-7.40266672958336,0.0577935962102471,-0.000112288131265282
##Pixel to Wavelength Coefficients:,1779.07784909224,-0.923938295271985,-0.000239032023878199
##Serial Number:,947R033,947R033
##Scan Config Name:,Column 1,SystemTest
##Scan Config Type:,Column,Column
##Start wavelength (nm):,900,900
##End wavelength (nm):,1700,1700
##Pattern Pixel Width (nm):,7.03,7.03
##Exposure (ms):,0.635,0.635
##Digital Resolution:,228,228
##NPOINTS=228
##Num Repeats:,6,30
##PGA Gain:,64,64
##Total Measurement Time in sec:,2.0488933
##XUNITS=Wavelength(nm)
##YUNITS=Absorbance(AU)
##FIRSTX=901.938585242429
##LASTX=1701.22602801978
##PEAK TABLE=X+(Y..Y)
901.938585242429,0.70664564076463
905.839109344998,0.703223830077724
909.735330871137,0.710780185016858
913.627249820846,0.710374251579967
917.514866194126,0.712169281473028
921.398179990975,0.718182736744805
925.277191211395,0.725454377026317
929.151899855385,0.729545967794982
933.022305922945,0.727447099717834
938.17615444969,0.723479491367091
942.036521172247,0.717904804924576
945.892585318375,0.71574454499396
949.744346888073,0.713357460695984
953.59180588134,0.713924276128611
957.434962298178,0.710573813572402
961.273816138587,0.714826671880118
965.108367402565,0.715426982364256
968.938616090114,0.715135598762738
974.03892144351,0.713816568286471
977.859130786056,0.71556472736773
981.675037552172,0.714629505816671
985.486641741858,0.713983310390925
989.293943355114,0.713996803256757
993.096942391941,0.714532348684414
996.895638852337,0.717361466564268
1000.6900327363,0.718602968764239
1004.48012404384,0.718013539433763
1009.52688622389,0.716144807834073
1013.30693818642,0.715123781793169
1017.08268757253,0.716390294481165
1020.8541343822,0.713901208548762
1024.62127861545,0.715502229954385
1028.38412027226,0.713216386138762
1032.14265935265,0.713347957701201
1035.8968958566,0.713793424687132
1039.64682978413,0.712160430369306
1044.64004879083,0.711503154250511
1048.37994337335,0.711454923571746
1052.11553537944,0.710445172138937
1055.84682480911,0.710431706890984
1059.57381166234,0.711948094477287
1063.29649593914,0.712234807101229
1067.01487763952,0.712076263058537
1070.72895676346,0.711129422243678
1074.43873331097,0.711732387274086
1079.37840914432,0.708230956941667
1083.07814634683,0.710344992248923
1086.77358097292,0.711399698777059
1090.46471302257,0.710513908950383
1094.15154249579,0.711324031670153
1097.83406939258,0.710574790946769
1101.51229371294,0.711414074807548
1105.18621545688,0.710876854516438
1108.85583462438,0.7134320848319
1113.74196728438,0.710771579219241
1117.40154710688,0.710161786407791
1121.05682435295,0.71099399443264
1124.70779902259,0.710835236174187
1128.3544711158,0.712467883576092
1131.99684063258,0.711899507753258
1135.63490757293,0.711572755814662
1139.26867193685,0.711566902857113
1142.89813372434,0.709999474676362
1147.73072321099,0.710758316002183
1151.35014565348,0.710973136479474
1154.96526551954,0.712004961937489
1158.57608280917,0.709757186642376
1162.18259752237,0.710486978392529
1165.78480965914,0.710415615909114
1169.38271921947,0.710968126932043
1172.97632620338,0.709918019957161
1176.56563061086,0.711087589901075
1181.34467692417,0.710457310105947
1184.92394198664,0.709529393008925
1188.49890447269,0.70977265391933
1192.06956438231,0.709030604022979
1195.63592171549,0.707948398833274
1199.19797647225,0.708664555531427
1202.75572865258,0.70617236207558
1206.30917825648,0.707308964289792
1209.85832528395,0.705943438208935
1214.5838284239,0.705978618528138
1218.12293610637,0.7058827781269
1221.6577412124,0.70509113875793
1225.18824374201,0.707275981580189
1228.71444369518,0.705138759943466
1232.23634107193,0.705442906391486
1235.75393587224,0.706462404992467
1239.26722809613,0.705209725608123
1242.77621774359,0.706455972629821
1247.44817771019,0.704654985049638
1250.94712801265,0.705819707643055
1254.44177573867,0.706642068504145
1257.93212088826,0.70591417068604
1261.41816346143,0.70648055911311
1264.89990345816,0.706716577395925
1268.37734087847,0.708505587311123
1271.85047572234,0.707975831512903
1275.31930798978,0.706915899523407
1279.93772478304,0.706548245669206
1283.39651770548,0.706072735436203
1286.8510080515,0.707486918687743
1290.30119582108,0.706581246387359
1293.74708101423,0.707014431617409
1297.18866363095,0.705623243535712
1300.62594367125,0.706975426170854
1304.05892113511,0.706072793026135
1307.48759602254,0.70737590979251
1312.05246964245,0.707506291708874
1315.47110518488,0.706512257777009
1318.88543815088,0.707481314283541
1322.29546854045,0.706267786336755
1325.70119635359,0.706923672934917
1329.10262159031,0.707631473671344
1332.49974425059,0.706629569533058
1335.89256433444,0.707092548592247
1339.28108184186,0.707978854150344
1343.79241228842,0.708855884344189
1347.17089045084,0.70956066135922
1350.54506603683,0.710638813301576
1353.91493904639,0.712318359386315
1357.28050947952,0.711834595209154
1360.64177733622,0.713599982644201
1363.99874261649,0.712000230146119
1367.35140532033,0.713641887021694
1370.69976544774,0.71465505055793
1375.15755272095,0.714969057566299
1378.49587350336,0.715456379246719
1381.82989170933,0.717164410823559
1385.15960733888,0.718060037812335
1388.485020392,0.718750389566324
1391.80613086869,0.719828132464535
1395.12293876895,0.72055498810671
1398.43544409277,0.722429384786146
1401.74364684017,0.724990107143144
1406.14789094004,0.726693250088117
1409.44605434243,0.727598516004151
1412.7399151684,0.730601661029103
1416.02947341793,0.731694157306856
1419.31472909104,0.733028609922971
1422.59568218772,0.734029833292965
1425.87233270796,0.734763682321664
1429.14468065178,0.734471327627864
1432.41272601917,0.735943055834317
1436.76342694568,0.736828812136227
1440.02143296807,0.737765493361968
1443.27513641402,0.73724504768517
1446.52453728354,0.738532227253456
1449.76963557664,0.738772410907586
1453.0104312933,0.738356995121554
1456.24692443354,0.740194959679399
1459.47911499734,0.740971690728818
1462.70700298472,0.740450337037828
1467.00416073789,0.741045941571461
1470.22200938026,0.741390323976602
1473.4355554462,0.741698661326363
1476.64479893571,0.743430931005738
1479.8497398488,0.743571668644333
1483.05037818545,0.744920952858807
1486.24671394567,0.747279062920954
1489.43874712947,0.747898443043878
1492.62647773683,0.749498321861415
1496.87009231665,0.74939665116511
1500.04778357901,0.75132878840569
1503.22117226494,0.752691226057643
1506.39025837444,0.752851586167335
1509.55504190751,0.750906239799536
1512.71552286416,0.752336712884947
1515.87170124437,0.752561985176423
1519.02357704815,0.750112692327678
1522.1711502755,0.751108930204571
1526.36122168197,0.750966593622267
1529.49875556432,0.749791296941362
1532.63198687024,0.748388153764339
1535.76091559973,0.750916492873371
1538.88554175279,0.747466206504243
1542.00586532942,0.745836069461098
1545.12188632962,0.747807329036857
1548.23360475339,0.745607889139518
1551.34102060073,0.74675889467904
1555.47754883385,0.746233808215617
1558.57492533619,0.743437032012072
1561.6679992621,0.746546752077795
1564.75677061158,0.7438701765223
1567.84123938463,0.746235713658023
1570.92140558125,0.74692116465801
1573.99726920143,0.747642614739339
1577.06883024519,0.747022214602223
1580.13608871252,0.74754808567251
1584.21907377229,0.74771499529776
1587.27629289462,0.744846688089085
1590.32920944052,0.746428766072045
1593.37782340998,0.745990245410865
1596.42213480302,0.745580797504442
1599.46214361963,0.746862969303687
1602.49784985981,0.745630442034896
1605.52925352355,0.744440466328469
1608.55635461087,0.744778067520515
1612.58579649729,0.74549200684178
1615.60285823961,0.743084777912566
1618.61561740549,0.745617936022863
1621.62407399495,0.74282532522809
1624.62822800797,0.74475604352433
1627.62807944457,0.743408956311247
1630.62362830474,0.742685380548088
1633.61487458847,0.746483742828956
1636.60181829578,0.742786806932437
1640.57771700885,0.741748038335892
1643.55462137116,0.748431798286227
1646.52722315703,0.745831713447608
1649.49552236647,0.743594178319498
1652.45951899949,0.740768114554649
1655.41921305607,0.741893160345001
1658.37460453623,0.742135349192359
1661.32569343995,0.74352958294056
1664.27247976724,0.741887079934699
1668.19483530697,0.733927026520761
1671.13158228926,0.728038969251705
1674.06402669512,0.709218733152587
1676.99216852456,0.693483966420256
1679.91600777756,0.669150568630148
1682.83554445413,0.639205364010187
1685.75077855427,0.59864355103867
1688.66171007799,0.581490965171113
1691.56833902527,0.547738721889449
1695.43715139165,0.530971389099061
1698.33374099393,0.524539351215307
1701.22602801978,0.515582560853169
##END=
