##TITLE=Column 1
##JCAMP-DX=4.24
##DATA TYPE=INFRARED SPECTRUM
##Method:,Column 1,Built-In Reference,,,Model Name,NIR-S-G1
##Host Date-Time:,27/10/20 @ 13:11:41,13/5/20 @ 16:0:36,,,GUI Version,3.6.4
##Header Version:,1,1,,,Tiva Version,2.4.4.0
##System Temp (C):,47.93,34.7,,,DLPC Version,2.2.0
##Detector Temp (C),0,0,,,UUID,DE:67:0C:88:67:4B:68:21
##Humidity (%):,30.4,35.27,,,Main Board Version,D
##Lamp PD:,1923,1767
##Shift Vector Coefficients:,-7.40266672958336,0.0577935962102471,-0.000112288131265282
##Pixel to Wavelength Coefficients:,1779.07784909224,-0.923938295271985,-0.000239032023878199
##Serial Number:,947R033,947R033
##Scan Config Name:,Column 1,SystemTest
##Scan Config Type:,Column,Column
##Start wavelength (nm):,900,900
##End wavelength (nm):,1700,1700
##Pattern Pixel Width (nm):,7.03,7.03
##Exposure (ms):,0.635,0.635
##Digital Resolution:,228,228
##NPOINTS=228
##Num Repeats:,6,30
##PGA Gain:,64,64
##Total Measurement Time in sec:,2.0981304
##XUNITS=Wavelength(nm)
##YUNITS=Absorbance(AU)
##FIRSTX=901.938585242429
##LASTX=1701.22602801978
##PEAK TABLE=X+(Y..Y)
901.938585242429,0.528734379522448
905.839109344998,0.525256930164659
909.735330871137,0.527934680085973
913.627249820846,0.530684662375537
917.514866194126,0.539001770321074
921.398179990975,0.543453110049931
925.277191211395,0.545015026568002
929.151899855385,0.55020166669109
933.022305922945,0.544260561707689
938.17615444969,0.538268356752781
942.036521172247,0.530490577477404
945.892585318375,0.525758592984914
949.744346888073,0.519797560193584
953.59180588134,0.516631572625029
957.434962298178,0.513449308857495
961.273816138587,0.512401572260952
965.108367402565,0.505877850286258
968.938616090114,0.505862946972933
974.03892144351,0.503072302711767
977.859130786056,0.500351083693389
981.675037552172,0.498768762973737
985.486641741858,0.49662392095468
989.293943355114,0.493525302127497
993.096942391941,0.491456026797012
996.895638852337,0.491670218322316
1000.6900327363,0.489862802522218
1004.48012404384,0.486909914343127
1009.52688622389,0.484822984550854
1013.30693818642,0.484322017896363
1017.08268757253,0.483149603725144
1020.8541343822,0.481912547663162
1024.62127861545,0.479431310562789
1028.38412027226,0.478290349803209
1032.14265935265,0.477145251061451
1035.8968958566,0.476142647657131
1039.64682978413,0.476017262452732
1044.64004879083,0.475280486440941
1048.37994337335,0.473816890489988
1052.11553537944,0.473978935074144
1055.84682480911,0.474210391314713
1059.57381166234,0.474198589418584
1063.29649593914,0.474474922921433
1067.01487763952,0.473587613241794
1070.72895676346,0.473369671162958
1074.43873331097,0.473119545565795
1079.37840914432,0.472317274393013
1083.07814634683,0.472005337937248
1086.77358097292,0.472338939401397
1090.46471302257,0.471740125318749
1094.15154249579,0.470868121056776
1097.83406939258,0.470865617999554
1101.51229371294,0.470397372619126
1105.18621545688,0.468468255215863
1108.85583462438,0.468774892391888
1113.74196728438,0.467786855656112
1117.40154710688,0.466678236164338
1121.05682435295,0.466270638154552
1124.70779902259,0.466523128688124
1128.3544711158,0.466452401553901
1131.99684063258,0.465893843039026
1135.63490757293,0.463755233804073
1139.26867193685,0.463251620133756
1142.89813372434,0.460908320378089
1147.73072321099,0.45992454676681
1151.35014565348,0.459041734461175
1154.96526551954,0.458972515148265
1158.57608280917,0.459013515679598
1162.18259752237,0.457705926415447
1165.78480965914,0.457908258774408
1169.38271921947,0.45698042249956
1172.97632620338,0.455849133092406
1176.56563061086,0.455229265359934
1181.34467692417,0.454630236250844
1184.92394198664,0.45250751362484
1188.49890447269,0.451726171374262
1192.06956438231,0.451588107876057
1195.63592171549,0.451397773872798
1199.19797647225,0.448757986684591
1202.75572865258,0.449450586297687
1206.30917825648,0.448075930308065
1209.85832528395,0.44753772996927
1214.5838284239,0.447662984011612
1218.12293610637,0.446635547799758
1221.6577412124,0.445567066142761
1225.18824374201,0.444546667565829
1228.71444369518,0.443912611228942
1232.23634107193,0.444614027162611
1235.75393587224,0.445183651711985
1239.26722809613,0.443945967095738
1242.77621774359,0.443457747342628
1247.44817771019,0.44300027246046
1250.94712801265,0.442167699074205
1254.44177573867,0.442650563787066
1257.93212088826,0.442413094630361
1261.41816346143,0.441916897478594
1264.89990345816,0.441934310278577
1268.37734087847,0.442265742965797
1271.85047572234,0.441801549951181
1275.31930798978,0.442336112487626
1279.93772478304,0.442302765320204
1283.39651770548,0.442066330085427
1286.8510080515,0.442185366140129
1290.30119582108,0.441506863313927
1293.74708101423,0.441757939888851
1297.18866363095,0.44254383530622
1300.62594367125,0.442050862249573
1304.05892113511,0.44138570453851
1307.48759602254,0.441981915413227
1312.05246964245,0.442517036001342
1315.47110518488,0.441944251724596
1318.88543815088,0.442210436798981
1322.29546854045,0.442339465904528
1325.70119635359,0.442066340911063
1329.10262159031,0.442815170651834
1332.49974425059,0.442610036571894
1335.89256433444,0.442765307574725
1339.28108184186,0.443357363108852
1343.79241228842,0.444148893735224
1347.17089045084,0.444509871549041
1350.54506603683,0.446323572256221
1353.91493904639,0.446767744434292
1357.28050947952,0.447659440211611
1360.64177733622,0.44764018634935
1363.99874261649,0.447497532126078
1367.35140532033,0.447549927072597
1370.69976544774,0.447982792894537
1375.15755272095,0.447696772421688
1378.49587350336,0.448946411623335
1381.82989170933,0.448938784910966
1385.15960733888,0.448238999386884
1388.485020392,0.448764136575489
1391.80613086869,0.449609195158973
1395.12293876895,0.449631709270508
1398.43544409277,0.450184554046122
1401.74364684017,0.450575392126683
1406.14789094004,0.450454308631673
1409.44605434243,0.451008961889007
1412.7399151684,0.451951412366746
1416.02947341793,0.452108874702332
1419.31472909104,0.451470275331762
1422.59568218772,0.451778900717711
1425.87233270796,0.451838748432377
1429.14468065178,0.451408174972731
1432.41272601917,0.450605362930091
1436.76342694568,0.449761855726972
1440.02143296807,0.449356888807341
1443.27513641402,0.449419113284505
1446.52453728354,0.450444755874385
1449.76963557664,0.450263991347952
1453.0104312933,0.449759960127808
1456.24692443354,0.450357630370844
1459.47911499734,0.449581462152008
1462.70700298472,0.449396690895887
1467.00416073789,0.449092953270198
1470.22200938026,0.448998418062633
1473.4355554462,0.449324121413048
1476.64479893571,0.449867095172006
1479.8497398488,0.449669317362291
1483.05037818545,0.449188195516267
1486.24671394567,0.450112026667553
1489.43874712947,0.449813997301491
1492.62647773683,0.450051597428314
1496.87009231665,0.451828934164408
1500.04778357901,0.452206178388211
1503.22117226494,0.452488228693985
1506.39025837444,0.45209787037773
1509.55504190751,0.453042236807113
1512.71552286416,0.452607272287989
1515.87170124437,0.453024209463479
1519.02357704815,0.45325605600806
1522.1711502755,0.453102276477043
1526.36122168197,0.452990048675571
1529.49875556432,0.452747680997017
1532.63198687024,0.45346566262126
1535.76091559973,0.453368217489016
1538.88554175279,0.453400569058185
1542.00586532942,0.4539468861987
1545.12188632962,0.45392890216057
1548.23360475339,0.45422247335389
1551.34102060073,0.453608327128058
1555.47754883385,0.453510301875193
1558.57492533619,0.454142739764902
1561.6679992621,0.455200043436031
1564.75677061158,0.45526954786507
1567.84123938463,0.456247628076167
1570.92140558125,0.456418148586055
1573.99726920143,0.456396694939938
1577.06883024519,0.456842625985287
1580.13608871252,0.455229079353255
1584.21907377229,0.454564822753762
1587.27629289462,0.456068761807784
1590.32920944052,0.455895410257114
1593.37782340998,0.454709537810116
1596.42213480302,0.454575320189174
1599.46214361963,0.456502488077646
1602.49784985981,0.45480095669201
1605.52925352355,0.454648437266968
1608.55635461087,0.455413944994753
1612.58579649729,0.455374139224601
1615.60285823961,0.454460515394876
1618.61561740549,0.45413285928826
1621.62407399495,0.454209503404127
1624.62822800797,0.454951794374313
1627.62807944457,0.453527663641354
1630.62362830474,0.456548644254875
1633.61487458847,0.455677940122808
1636.60181829578,0.457758840197462
1640.57771700885,0.461773368554702
1643.55462137116,0.464734854411486
1646.52722315703,0.465892777556944
1649.49552236647,0.471550169395546
1652.45951899949,0.475861842805031
1655.41921305607,0.479532435453558
1658.37460453623,0.479728782522611
1661.32569343995,0.478612694167226
1664.27247976724,0.472420240740598
1668.19483530697,0.458037949370204
1671.13158228926,0.447288379393633
1674.06402669512,0.42964974343902
1676.99216852456,0.408412958827977
1679.91600777756,0.381337293163931
1682.83554445413,0.342635454201819
1685.75077855427,0.311263469837577
1688.66171007799,0.272438509146537
1691.56833902527,0.24863278710681
1695.43715139165,0.223669327832581
1698.33374099393,0.21432926382408
1701.22602801978,0.211052704365031
##END=
