##TITLE=Column 1
##JCAMP-DX=4.24
##DATA TYPE=INFRARED SPECTRUM
##Method:,Column 1,Built-In Reference,,,Model Name,NIR-S-G1
##Host Date-Time:,27/10/20 @ 13:11:50,13/5/20 @ 16:0:36,,,GUI Version,3.6.4
##Header Version:,1,1,,,Tiva Version,2.4.4.0
##System Temp (C):,48.02,34.7,,,DLPC Version,2.2.0
##Detector Temp (C),0,0,,,UUID,DE:67:0C:88:67:4B:68:21
##Humidity (%):,30.26,35.27,,,Main Board Version,D
##Lamp PD:,1920,1767
##Shift Vector Coefficients:,-7.40266672958336,0.0577935962102471,-0.000112288131265282
##Pixel to Wavelength Coefficients:,1779.07784909224,-0.923938295271985,-0.000239032023878199
##Serial Number:,947R033,947R033
##Scan Config Name:,Column 1,SystemTest
##Scan Config Type:,Column,Column
##Start wavelength (nm):,900,900
##End wavelength (nm):,1700,1700
##Pattern Pixel Width (nm):,7.03,7.03
##Exposure (ms):,0.635,0.635
##Digital Resolution:,228,228
##NPOINTS=228
##Num Repeats:,6,30
##PGA Gain:,64,64
##Total Measurement Time in sec:,2.0912313
##XUNITS=Wavelength(nm)
##YUNITS=Reflectance(unitless)
##FIRSTX=901.938585242429
##LASTX=1701.22602801978
##PEAK TABLE=X+(Y..Y)
901.938585242429,0.116024776672847
905.839109344998,0.119217544569332
909.735330871137,0.117807418946549
913.627249820846,0.116765718617197
917.514866194126,0.113273424116605
921.398179990975,0.112698371805441
925.277191211395,0.112035166924082
929.151899855385,0.111634109205983
933.022305922945,0.108619253571126
938.17615444969,0.114195428698145
942.036521172247,0.115270491257409
945.892585318375,0.115596118461097
949.744346888073,0.116260178841327
953.59180588134,0.119029058871817
957.434962298178,0.117994046423288
961.273816138587,0.119648657490711
965.108367402565,0.120212771923528
968.938616090114,0.120870244217669
974.03892144351,0.120791684552646
977.859130786056,0.121117561505012
981.675037552172,0.121326048049685
985.486641741858,0.121185735702794
989.293943355114,0.122148799808925
993.096942391941,0.122966030806018
996.895638852337,0.122277453896991
1000.6900327363,0.122590641462659
1004.48012404384,0.122363718013586
1009.52688622389,0.122443040825641
1013.30693818642,0.124199315568552
1017.08268757253,0.122208150711714
1020.8541343822,0.122899912873852
1024.62127861545,0.122949782856179
1028.38412027226,0.123309536856536
1032.14265935265,0.123324575559142
1035.8968958566,0.122705821658985
1039.64682978413,0.12313931833184
1044.64004879083,0.123075342113827
1048.37994337335,0.122650848283634
1052.11553537944,0.122377429065473
1055.84682480911,0.12214482578161
1059.57381166234,0.123081492268486
1063.29649593914,0.122303540583071
1067.01487763952,0.122285280272041
1070.72895676346,0.122333991583162
1074.43873331097,0.122398383581899
1079.37840914432,0.121951503191702
1083.07814634683,0.121694157223247
1086.77358097292,0.1223245557141
1090.46471302257,0.122390420375072
1094.15154249579,0.122126857618548
1097.83406939258,0.120935791168548
1101.51229371294,0.122805170945487
1105.18621545688,0.121565214741917
1108.85583462438,0.120813671314828
1113.74196728438,0.122030757201553
1117.40154710688,0.121289180651088
1121.05682435295,0.121164167419564
1124.70779902259,0.121005788192969
1128.3544711158,0.120928924629869
1131.99684063258,0.121928935666493
1135.63490757293,0.120591319425084
1139.26867193685,0.120478359461837
1142.89813372434,0.120111167793224
1147.73072321099,0.120837277795309
1151.35014565348,0.120338994844106
1154.96526551954,0.119913257102635
1158.57608280917,0.120011302918208
1162.18259752237,0.119494952413815
1165.78480965914,0.119192140473863
1169.38271921947,0.118382967345165
1172.97632620338,0.119340260214109
1176.56563061086,0.119518949309999
1181.34467692417,0.118709555769759
1184.92394198664,0.119450063648551
1188.49890447269,0.119261597864247
1192.06956438231,0.119076101670371
1195.63592171549,0.118972937145844
1199.19797647225,0.118933928159372
1202.75572865258,0.119461376937311
1206.30917825648,0.11981953703801
1209.85832528395,0.119575709140728
1214.5838284239,0.119843605531266
1218.12293610637,0.119481383649067
1221.6577412124,0.119934409536501
1225.18824374201,0.121286133869222
1228.71444369518,0.120559257139364
1232.23634107193,0.120841236637636
1235.75393587224,0.121052574472818
1239.26722809613,0.121167448879216
1242.77621774359,0.120887936532773
1247.44817771019,0.121641414998525
1250.94712801265,0.121917935435939
1254.44177573867,0.122058386886717
1257.93212088826,0.12190378787688
1261.41816346143,0.121955807119839
1264.89990345816,0.122000784253763
1268.37734087847,0.122024460890819
1271.85047572234,0.122723217965065
1275.31930798978,0.122628782545385
1279.93772478304,0.122665484210878
1283.39651770548,0.122819233848238
1286.8510080515,0.12280805059296
1290.30119582108,0.12221772040432
1293.74708101423,0.121815140069761
1297.18866363095,0.122914847756494
1300.62594367125,0.122742924136403
1304.05892113511,0.122287660247204
1307.48759602254,0.122488508769924
1312.05246964245,0.122261896899986
1315.47110518488,0.122867510930232
1318.88543815088,0.12241557478116
1322.29546854045,0.123133640552995
1325.70119635359,0.122654682845277
1329.10262159031,0.122556805436097
1332.49974425059,0.122863179244486
1335.89256433444,0.122536819079003
1339.28108184186,0.122092579197311
1343.79241228842,0.12199267576919
1347.17089045084,0.122255320627881
1350.54506603683,0.121974239209264
1353.91493904639,0.121077225249951
1357.28050947952,0.120841614878902
1360.64177733622,0.121171880270763
1363.99874261649,0.121624570093101
1367.35140532033,0.121302320562223
1370.69976544774,0.121390050961342
1375.15755272095,0.121199079780175
1378.49587350336,0.120755003203771
1381.82989170933,0.121193625343757
1385.15960733888,0.120669792854765
1388.485020392,0.12029562107837
1391.80613086869,0.120186116885267
1395.12293876895,0.119818186219641
1398.43544409277,0.119635080940998
1401.74364684017,0.119397975893575
1406.14789094004,0.118727006174987
1409.44605434243,0.118613117475166
1412.7399151684,0.117931855177698
1416.02947341793,0.118030443976602
1419.31472909104,0.118034100011443
1422.59568218772,0.116881218967273
1425.87233270796,0.11754676664771
1429.14468065178,0.116779920573965
1432.41272601917,0.116954001443313
1436.76342694568,0.116989940336762
1440.02143296807,0.116990976310173
1443.27513641402,0.116705383294617
1446.52453728354,0.116353073665946
1449.76963557664,0.116350296493924
1453.0104312933,0.116841158090884
1456.24692443354,0.116011438347332
1459.47911499734,0.116265333885233
1462.70700298472,0.115910419437139
1467.00416073789,0.115948236155493
1470.22200938026,0.115937275087742
1473.4355554462,0.115173795984401
1476.64479893571,0.115804976640531
1479.8497398488,0.116025965318624
1483.05037818545,0.115238468798647
1486.24671394567,0.115001905250476
1489.43874712947,0.114346509838954
1492.62647773683,0.114352008616478
1496.87009231665,0.113933658371757
1500.04778357901,0.113643928902667
1503.22117226494,0.114700808066059
1506.39025837444,0.11470345910569
1509.55504190751,0.113863224938713
1512.71552286416,0.11418820780533
1515.87170124437,0.114917202009013
1519.02357704815,0.114609500805153
1522.1711502755,0.114985022303743
1526.36122168197,0.115473406116304
1529.49875556432,0.115965356020541
1532.63198687024,0.116016402484353
1535.76091559973,0.116435148832893
1538.88554175279,0.116302995225004
1542.00586532942,0.116728280961183
1545.12188632962,0.116741929342329
1548.23360475339,0.11738035872761
1551.34102060073,0.117285397582683
1555.47754883385,0.118916135252997
1558.57492533619,0.118275173604206
1561.6679992621,0.118438792273268
1564.75677061158,0.118307100569279
1567.84123938463,0.118388751573157
1570.92140558125,0.11776806024338
1573.99726920143,0.119400713685978
1577.06883024519,0.119521976459987
1580.13608871252,0.119090385827707
1584.21907377229,0.119517679929905
1587.27629289462,0.120532970747296
1590.32920944052,0.12074890040842
1593.37782340998,0.120616409327289
1596.42213480302,0.120750911839122
1599.46214361963,0.121473909505859
1602.49784985981,0.121806424940085
1605.52925352355,0.121248623879524
1608.55635461087,0.122051031332686
1612.58579649729,0.123065307663269
1615.60285823961,0.123483112771847
1618.61561740549,0.122982897795204
1621.62407399495,0.124106365981611
1624.62822800797,0.124919505567859
1627.62807944457,0.124508049125001
1630.62362830474,0.124835308704299
1633.61487458847,0.124569521093109
1636.60181829578,0.125153103285832
1640.57771700885,0.124642937135458
1643.55462137116,0.124652450107986
1646.52722315703,0.126881748550992
1649.49552236647,0.127469928368698
1652.45951899949,0.126313140844184
1655.41921305607,0.127058559406729
1658.37460453623,0.126132016624204
1661.32569343995,0.129272626231792
1664.27247976724,0.130150160696857
1668.19483530697,0.129513202802227
1671.13158228926,0.135510784281845
1674.06402669512,0.138026166240243
1676.99216852456,0.147760652166738
1679.91600777756,0.154077237235746
1682.83554445413,0.167167009006162
1685.75077855427,0.185620506935772
1688.66171007799,0.192438250034943
1691.56833902527,0.206718898385565
1695.43715139165,0.214759149319907
1698.33374099393,0.222045867960195
1701.22602801978,0.220710171529844
##END=
