##TITLE=Column 1
##JCAMP-DX=4.24
##DATA TYPE=INFRARED SPECTRUM
##Method:,Column 1,Built-In Reference,,,Model Name,NIR-S-G1
##Host Date-Time:,27/10/20 @ 13:12:8,13/5/20 @ 16:0:36,,,GUI Version,3.6.4
##Header Version:,1,1,,,Tiva Version,2.4.4.0
##System Temp (C):,48.2,34.7,,,DLPC Version,2.2.0
##Detector Temp (C),0,0,,,UUID,DE:67:0C:88:67:4B:68:21
##Humidity (%):,29.91,35.27,,,Main Board Version,D
##Lamp PD:,1920,1767
##Shift Vector Coefficients:,-7.40266672958336,0.0577935962102471,-0.000112288131265282
##Pixel to Wavelength Coefficients:,1779.07784909224,-0.923938295271985,-0.000239032023878199
##Serial Number:,947R033,947R033
##Scan Config Name:,Column 1,SystemTest
##Scan Config Type:,Column,Column
##Start wavelength (nm):,900,900
##End wavelength (nm):,1700,1700
##Pattern Pixel Width (nm):,7.03,7.03
##Exposure (ms):,0.635,0.635
##Digital Resolution:,228,228
##NPOINTS=228
##Num Repeats:,6,30
##PGA Gain:,64,64
##Total Measurement Time in sec:,2.0956605
##XUNITS=Wavelength(nm)
##YUNITS=Absorbance(AU)
##FIRSTX=901.938585242429
##LASTX=1701.22602801978
##PEAK TABLE=X+(Y..Y)
901.938585242429,0.932149610515232
905.839109344998,0.910527707781084
909.735330871137,0.936696599722233
913.627249820846,0.929368147933197
917.514866194126,0.927267983446438
921.398179990975,0.927624081404709
925.277191211395,0.927854172844364
929.151899855385,0.937473379643566
933.022305922945,0.931773682673504
938.17615444969,0.927590376087896
942.036521172247,0.926036170773773
945.892585318375,0.91743800048619
949.744346888073,0.917103972333327
953.59180588134,0.914578391747552
957.434962298178,0.912202823543048
961.273816138587,0.910056853126815
965.108367402565,0.907744870148473
968.938616090114,0.908206796573866
974.03892144351,0.909412149364034
977.859130786056,0.905943342513846
981.675037552172,0.911378747488544
985.486641741858,0.910626687688523
989.293943355114,0.912482214767437
993.096942391941,0.907965061089031
996.895638852337,0.915881020492097
1000.6900327363,0.911960051578748
1004.48012404384,0.913206417073477
1009.52688622389,0.909957235688104
1013.30693818642,0.908143723180583
1017.08268757253,0.90553088530556
1020.8541343822,0.910080759621196
1024.62127861545,0.906101832226299
1028.38412027226,0.913138408663465
1032.14265935265,0.908822910154087
1035.8968958566,0.909473790955679
1039.64682978413,0.908738640178397
1044.64004879083,0.910319429880684
1048.37994337335,0.907791506662147
1052.11553537944,0.908150898339501
1055.84682480911,0.908276120167868
1059.57381166234,0.908504325353073
1063.29649593914,0.906228010727339
1067.01487763952,0.906899162189701
1070.72895676346,0.909499574141348
1074.43873331097,0.908048672591756
1079.37840914432,0.907677911154606
1083.07814634683,0.908953012568959
1086.77358097292,0.908374715162295
1090.46471302257,0.907666210837417
1094.15154249579,0.907193290814698
1097.83406939258,0.905682827550347
1101.51229371294,0.90603801444866
1105.18621545688,0.910568933010435
1108.85583462438,0.909160252892627
1113.74196728438,0.909654941559023
1117.40154710688,0.908136812161987
1121.05682435295,0.909738477542281
1124.70779902259,0.906307404680911
1128.3544711158,0.91167873936769
1131.99684063258,0.909863522653489
1135.63490757293,0.908770696685847
1139.26867193685,0.913613990838613
1142.89813372434,0.911528826067059
1147.73072321099,0.909529869728917
1151.35014565348,0.909160772398521
1154.96526551954,0.913754216698169
1158.57608280917,0.914942108247451
1162.18259752237,0.913898755770797
1165.78480965914,0.910694229000746
1169.38271921947,0.911594714163378
1172.97632620338,0.91148314636664
1176.56563061086,0.909349675971058
1181.34467692417,0.913595489000947
1184.92394198664,0.911648141825047
1188.49890447269,0.909391996431466
1192.06956438231,0.909633200497939
1195.63592171549,0.911125040881897
1199.19797647225,0.908729075356887
1202.75572865258,0.908360363415146
1206.30917825648,0.909822880465506
1209.85832528395,0.907758371905158
1214.5838284239,0.906716490467864
1218.12293610637,0.906176542477442
1221.6577412124,0.905944819010019
1225.18824374201,0.905531999052971
1228.71444369518,0.907019797945188
1232.23634107193,0.90524691046185
1235.75393587224,0.906469948526191
1239.26722809613,0.904212422970138
1242.77621774359,0.907056792346233
1247.44817771019,0.906197748753188
1250.94712801265,0.906069076634635
1254.44177573867,0.907962507039463
1257.93212088826,0.909403201875565
1261.41816346143,0.90416406823536
1264.89990345816,0.909135156709382
1268.37734087847,0.909693028173292
1271.85047572234,0.909010816371779
1275.31930798978,0.908578321034044
1279.93772478304,0.908006639744352
1283.39651770548,0.908024393534002
1286.8510080515,0.908538316090921
1290.30119582108,0.907999771808101
1293.74708101423,0.908907852714813
1297.18866363095,0.908927410587103
1300.62594367125,0.909316508885691
1304.05892113511,0.910131408542964
1307.48759602254,0.909704828571357
1312.05246964245,0.909433015665454
1315.47110518488,0.909748229646205
1318.88543815088,0.909547398405235
1322.29546854045,0.909132959408114
1325.70119635359,0.907999059653766
1329.10262159031,0.909383659058308
1332.49974425059,0.910044861377241
1335.89256433444,0.908979797838375
1339.28108184186,0.90852677678144
1343.79241228842,0.909323659505941
1347.17089045084,0.908834804657606
1350.54506603683,0.911443068053219
1353.91493904639,0.911040329809856
1357.28050947952,0.910706376719828
1360.64177733622,0.911175408859475
1363.99874261649,0.91207283444173
1367.35140532033,0.912288420474747
1370.69976544774,0.912839351603573
1375.15755272095,0.911200251850948
1378.49587350336,0.913876985314985
1381.82989170933,0.913867761428863
1385.15960733888,0.915541103594957
1388.485020392,0.913914178456748
1391.80613086869,0.915780516985617
1395.12293876895,0.916698579396138
1398.43544409277,0.916967322354889
1401.74364684017,0.919481369731581
1406.14789094004,0.918881940837123
1409.44605434243,0.919638941487281
1412.7399151684,0.920924792942296
1416.02947341793,0.922495026209091
1419.31472909104,0.921256943214313
1422.59568218772,0.922874205791284
1425.87233270796,0.925324603738868
1429.14468065178,0.925557820948219
1432.41272601917,0.923895221788273
1436.76342694568,0.924417937321396
1440.02143296807,0.925221546227583
1443.27513641402,0.926846253193863
1446.52453728354,0.925280460369917
1449.76963557664,0.925617930638042
1453.0104312933,0.924811735143825
1456.24692443354,0.925209370490859
1459.47911499734,0.926195404086478
1462.70700298472,0.92744006595817
1467.00416073789,0.927875949370501
1470.22200938026,0.927674857711392
1473.4355554462,0.927939665090132
1476.64479893571,0.926510614044188
1479.8497398488,0.928411290347935
1483.05037818545,0.928514898572907
1486.24671394567,0.92977414704203
1489.43874712947,0.929905501532869
1492.62647773683,0.930361439027151
1496.87009231665,0.931856396456467
1500.04778357901,0.932378208223152
1503.22117226494,0.931477195271776
1506.39025837444,0.930595200120567
1509.55504190751,0.931064037312252
1512.71552286416,0.932269674303509
1515.87170124437,0.930765456184289
1519.02357704815,0.92897623165755
1522.1711502755,0.926873118385945
1526.36122168197,0.927977548358438
1529.49875556432,0.92483777592173
1532.63198687024,0.923949455918242
1535.76091559973,0.922843706104663
1538.88554175279,0.922030132003409
1542.00586532942,0.920931325179513
1545.12188632962,0.919794160564197
1548.23360475339,0.919355578244615
1551.34102060073,0.918280243426049
1555.47754883385,0.917014119926522
1558.57492533619,0.915850859243546
1561.6679992621,0.915275543931642
1564.75677061158,0.91517437539646
1567.84123938463,0.915727923353754
1570.92140558125,0.914127234974113
1573.99726920143,0.912731744457298
1577.06883024519,0.913932827301646
1580.13608871252,0.910447268011118
1584.21907377229,0.91287922213408
1587.27629289462,0.910607774200437
1590.32920944052,0.908630609702817
1593.37782340998,0.909327292605466
1596.42213480302,0.907998132311972
1599.46214361963,0.904942936158589
1602.49784985981,0.905649553236046
1605.52925352355,0.90565290110359
1608.55635461087,0.904049467123881
1612.58579649729,0.904944193827794
1615.60285823961,0.899245168345087
1618.61561740549,0.89994404112453
1621.62407399495,0.89902750230773
1624.62822800797,0.899753660503937
1627.62807944457,0.89746509753613
1630.62362830474,0.898501805476517
1633.61487458847,0.895741351599949
1636.60181829578,0.900713024308356
1640.57771700885,0.896219582792913
1643.55462137116,0.891021820703323
1646.52722315703,0.891340244945539
1649.49552236647,0.889283360276328
1652.45951899949,0.890621861890631
1655.41921305607,0.882338539648821
1658.37460453623,0.886412561223734
1661.32569343995,0.879746851961639
1664.27247976724,0.880919664382848
1668.19483530697,0.871705462512469
1671.13158228926,0.860440405189563
1674.06402669512,0.844685084435786
1676.99216852456,0.828730805985289
1679.91600777756,0.793548551350755
1682.83554445413,0.767272067361977
1685.75077855427,0.737677645220036
1688.66171007799,0.695545159007703
1691.56833902527,0.671429711258356
1695.43715139165,0.640892394880937
1698.33374099393,0.63441748269014
1701.22602801978,0.639321588185006
##END=
