##TITLE=Column 1
##JCAMP-DX=4.24
##DATA TYPE=INFRARED SPECTRUM
##Method:,Column 1,Built-In Reference,,,Model Name,NIR-S-G1
##Host Date-Time:,27/10/20 @ 13:11:53,13/5/20 @ 16:0:36,,,GUI Version,3.6.4
##Header Version:,1,1,,,Tiva Version,2.4.4.0
##System Temp (C):,48.04,34.7,,,DLPC Version,2.2.0
##Detector Temp (C),0,0,,,UUID,DE:67:0C:88:67:4B:68:21
##Humidity (%):,30.21,35.27,,,Main Board Version,D
##Lamp PD:,1920,1767
##Shift Vector Coefficients:,-7.40266672958336,0.0577935962102471,-0.000112288131265282
##Pixel to Wavelength Coefficients:,1779.07784909224,-0.923938295271985,-0.000239032023878199
##Serial Number:,947R033,947R033
##Scan Config Name:,Column 1,SystemTest
##Scan Config Type:,Column,Column
##Start wavelength (nm):,900,900
##End wavelength (nm):,1700,1700
##Pattern Pixel Width (nm):,7.03,7.03
##Exposure (ms):,0.635,0.635
##Digital Resolution:,228,228
##NPOINTS=228
##Num Repeats:,6,30
##PGA Gain:,64,64
##Total Measurement Time in sec:,2.0926931
##XUNITS=Wavelength(nm)
##YUNITS=Intensity
##FIRSTX=901.938585242429
##LASTX=1701.22602801978
##PEAK TABLE=X+(Y..Y)
901.938585242429,13404
905.839109344998,14990
909.735330871137,16317
913.627249820846,17684
917.514866194126,19934
921.398179990975,22710
925.277191211395,24660
929.151899855385,27887
933.022305922945,31906
938.17615444969,36416
942.036521172247,39871
945.892585318375,42596
949.744346888073,45192
953.59180588134,47445
957.434962298178,49840
961.273816138587,52252
965.108367402565,54391
968.938616090114,57013
974.03892144351,60073
977.859130786056,62339
981.675037552172,65147
985.486641741858,67536
989.293943355114,69687
993.096942391941,71403
996.895638852337,73236
1000.6900327363,74644
1004.48012404384,75933
1009.52688622389,77224
1013.30693818642,78400
1017.08268757253,79263
1020.8541343822,79896
1024.62127861545,80623
1028.38412027226,81132
1032.14265935265,81544
1035.8968958566,81260
1039.64682978413,81222
1044.64004879083,81204
1048.37994337335,80718
1052.11553537944,81059
1055.84682480911,80546
1059.57381166234,80239
1063.29649593914,80030
1067.01487763952,79265
1070.72895676346,79309
1074.43873331097,79741
1079.37840914432,79213
1083.07814634683,78736
1086.77358097292,78628
1090.46471302257,79084
1094.15154249579,78990
1097.83406939258,79662
1101.51229371294,79813
1105.18621545688,80006
1108.85583462438,80285
1113.74196728438,80691
1117.40154710688,81544
1121.05682435295,82120
1124.70779902259,82546
1128.3544711158,82890
1131.99684063258,83547
1135.63490757293,83874
1139.26867193685,84335
1142.89813372434,84608
1147.73072321099,85745
1151.35014565348,86303
1154.96526551954,87216
1158.57608280917,88289
1162.18259752237,88382
1165.78480965914,89356
1169.38271921947,90013
1172.97632620338,90681
1176.56563061086,91116
1181.34467692417,92675
1184.92394198664,93446
1188.49890447269,94417
1192.06956438231,95483
1195.63592171549,96648
1199.19797647225,98111
1202.75572865258,99782
1206.30917825648,101034
1209.85832528395,102296
1214.5838284239,103680
1218.12293610637,105412
1221.6577412124,106998
1225.18824374201,107949
1228.71444369518,109292
1232.23634107193,110434
1235.75393587224,112192
1239.26722809613,113422
1242.77621774359,114954
1247.44817771019,116423
1250.94712801265,117857
1254.44177573867,119508
1257.93212088826,120563
1261.41816346143,121711
1264.89990345816,123077
1268.37734087847,124762
1271.85047572234,125276
1275.31930798978,126024
1279.93772478304,127507
1283.39651770548,128348
1286.8510080515,129048
1290.30119582108,129772
1293.74708101423,130687
1297.18866363095,130551
1300.62594367125,131676
1304.05892113511,132084
1307.48759602254,133026
1312.05246964245,133443
1315.47110518488,133807
1318.88543815088,134234
1322.29546854045,134477
1325.70119635359,134963
1329.10262159031,134522
1332.49974425059,134949
1335.89256433444,135456
1339.28108184186,135023
1343.79241228842,135509
1347.17089045084,135580
1350.54506603683,135127
1353.91493904639,134409
1357.28050947952,134561
1360.64177733622,134785
1363.99874261649,134278
1367.35140532033,134583
1370.69976544774,134506
1375.15755272095,134152
1378.49587350336,133142
1381.82989170933,132075
1385.15960733888,131637
1388.485020392,131027
1391.80613086869,130312
1395.12293876895,129886
1398.43544409277,128956
1401.74364684017,128698
1406.14789094004,127916
1409.44605434243,127539
1412.7399151684,127090
1416.02947341793,126235
1419.31472909104,126238
1422.59568218772,126182
1425.87233270796,125535
1429.14468065178,124879
1432.41272601917,125003
1436.76342694568,124466
1440.02143296807,124347
1443.27513641402,125107
1446.52453728354,124071
1449.76963557664,123919
1453.0104312933,123940
1456.24692443354,123179
1459.47911499734,123275
1462.70700298472,122433
1467.00416073789,121831
1470.22200938026,121307
1473.4355554462,121150
1476.64479893571,119729
1479.8497398488,119650
1483.05037818545,118330
1486.24671394567,117309
1489.43874712947,116397
1492.62647773683,115982
1496.87009231665,114407
1500.04778357901,114063
1503.22117226494,112903
1506.39025837444,111866
1509.55504190751,111147
1512.71552286416,110239
1515.87170124437,109353
1519.02357704815,108554
1522.1711502755,107945
1526.36122168197,106548
1529.49875556432,105659
1532.63198687024,104810
1535.76091559973,103782
1538.88554175279,103255
1542.00586532942,101834
1545.12188632962,101011
1548.23360475339,99641
1551.34102060073,98563
1555.47754883385,97075
1558.57492533619,95572
1561.6679992621,94568
1564.75677061158,93111
1567.84123938463,90901
1570.92140558125,89527
1573.99726920143,88093
1577.06883024519,86254
1580.13608871252,84732
1584.21907377229,82709
1587.27629289462,81323
1590.32920944052,79691
1593.37782340998,78530
1596.42213480302,76650
1599.46214361963,75455
1602.49784985981,73433
1605.52925352355,71849
1608.55635461087,70746
1612.58579649729,68803
1615.60285823961,66911
1618.61561740549,65257
1621.62407399495,63583
1624.62822800797,61876
1627.62807944457,60560
1630.62362830474,59234
1633.61487458847,57776
1636.60181829578,56000
1640.57771700885,53773
1643.55462137116,52241
1646.52722315703,51249
1649.49552236647,49298
1652.45951899949,48192
1655.41921305607,46250
1658.37460453623,44893
1661.32569343995,43876
1664.27247976724,41552
1668.19483530697,39589
1671.13158228926,38198
1674.06402669512,36786
1676.99216852456,35317
1679.91600777756,33268
1682.83554445413,30738
1685.75077855427,28395
1688.66171007799,25799
1691.56833902527,22944
1695.43715139165,19058
1698.33374099393,16350
1701.22602801978,14081
##END=
