##TITLE=Column 1
##JCAMP-DX=4.24
##DATA TYPE=INFRARED SPECTRUM
##Method:,Column 1,Built-In Reference,,,Model Name,NIR-S-G1
##Host Date-Time:,27/10/20 @ 13:11:57,13/5/20 @ 16:0:36,,,GUI Version,3.6.4
##Header Version:,1,1,,,Tiva Version,2.4.4.0
##System Temp (C):,48.09,34.7,,,DLPC Version,2.2.0
##Detector Temp (C),0,0,,,UUID,DE:67:0C:88:67:4B:68:21
##Humidity (%):,30.2,35.27,,,Main Board Version,D
##Lamp PD:,1920,1767
##Shift Vector Coefficients:,-7.40266672958336,0.0577935962102471,-0.000112288131265282
##Pixel to Wavelength Coefficients:,1779.07784909224,-0.923938295271985,-0.000239032023878199
##Serial Number:,947R033,947R033
##Scan Config Name:,Column 1,SystemTest
##Scan Config Type:,Column,Column
##Start wavelength (nm):,900,900
##End wavelength (nm):,1700,1700
##Pattern Pixel Width (nm):,7.03,7.03
##Exposure (ms):,0.635,0.635
##Digital Resolution:,228,228
##NPOINTS=228
##Num Repeats:,6,30
##PGA Gain:,64,64
##Total Measurement Time in sec:,2.069538
##XUNITS=Wavelength(nm)
##YUNITS=Absorbance(AU)
##FIRSTX=901.938585242429
##LASTX=1701.22602801978
##PEAK TABLE=X+(Y..Y)
901.938585242429,0.848736630561964
905.839109344998,0.856803268118204
909.735330871137,0.841297663970962
913.627249820846,0.851981437841293
917.514866194126,0.863847429667501
921.398179990975,0.865801468781368
925.277191211395,0.864099971502167
929.151899855385,0.879640509753992
933.022305922945,0.874691946432145
938.17615444969,0.872180780022552
942.036521172247,0.868389932213587
945.892585318375,0.861096381290568
949.744346888073,0.859923613577702
953.59180588134,0.860746524697132
957.434962298178,0.856608179475224
961.273816138587,0.858959335996701
965.108367402565,0.857011606374659
968.938616090114,0.860136336075304
974.03892144351,0.85618084200264
977.859130786056,0.858537389948663
981.675037552172,0.855911454319651
985.486641741858,0.857463528682655
989.293943355114,0.858658788384232
993.096942391941,0.856611945958474
996.895638852337,0.859238733488501
1000.6900327363,0.861376871422595
1004.48012404384,0.859948120284386
1009.52688622389,0.857826349639569
1013.30693818642,0.860510892504756
1017.08268757253,0.859555945108496
1020.8541343822,0.862455034991961
1024.62127861545,0.859878588713375
1028.38412027226,0.861728737440702
1032.14265935265,0.861349691695221
1035.8968958566,0.858643564984613
1039.64682978413,0.860677896170576
1044.64004879083,0.860118841446727
1048.37994337335,0.861085628672789
1052.11553537944,0.864314235817643
1055.84682480911,0.862394407817487
1059.57381166234,0.861496873873382
1063.29649593914,0.863820565591502
1067.01487763952,0.861451234569185
1070.72895676346,0.862332018759387
1074.43873331097,0.861251139094545
1079.37840914432,0.862101510803093
1083.07814634683,0.862240527130046
1086.77358097292,0.860977302266584
1090.46471302257,0.862384212835905
1094.15154249579,0.86111826190226
1097.83406939258,0.860939224181729
1101.51229371294,0.860988020816993
1105.18621545688,0.861114429852783
1108.85583462438,0.861705454277544
1113.74196728438,0.861579921115799
1117.40154710688,0.858919492640822
1121.05682435295,0.861764619440025
1124.70779902259,0.860877722197525
1128.3544711158,0.859741072158177
1131.99684063258,0.858114336381746
1135.63490757293,0.857478906274269
1139.26867193685,0.86006960904861
1142.89813372434,0.859781986122839
1147.73072321099,0.861607332345793
1151.35014565348,0.860854480001729
1154.96526551954,0.859664397427249
1158.57608280917,0.859991368327918
1162.18259752237,0.864592085909002
1165.78480965914,0.863437263356826
1169.38271921947,0.862898484034818
1172.97632620338,0.8635960704621
1176.56563061086,0.862779825194776
1181.34467692417,0.866721038920292
1184.92394198664,0.864092351423358
1188.49890447269,0.865933254827479
1192.06956438231,0.867064120734754
1195.63592171549,0.865804443333943
1199.19797647225,0.865287619046747
1202.75572865258,0.86401631468496
1206.30917825648,0.863934511839669
1209.85832528395,0.863988292384452
1214.5838284239,0.864270699767186
1218.12293610637,0.861754112871764
1221.6577412124,0.863927704028535
1225.18824374201,0.86335441458357
1228.71444369518,0.863443485400372
1232.23634107193,0.863535206438625
1235.75393587224,0.865703717254359
1239.26722809613,0.86374206464174
1242.77621774359,0.8645885079929
1247.44817771019,0.863743228508274
1250.94712801265,0.863483938552844
1254.44177573867,0.863275987042193
1257.93212088826,0.862237379369107
1261.41816346143,0.864099420858084
1264.89990345816,0.865143295033865
1268.37734087847,0.865775515732352
1271.85047572234,0.863845811759019
1275.31930798978,0.865121499281789
1279.93772478304,0.865012314349783
1283.39651770548,0.86442832680364
1286.8510080515,0.864879507634345
1290.30119582108,0.865298713813201
1293.74708101423,0.864037356553665
1297.18866363095,0.865257619540238
1300.62594367125,0.865469842782
1304.05892113511,0.864381626435947
1307.48759602254,0.864355323512833
1312.05246964245,0.865511473530335
1315.47110518488,0.864456100494792
1318.88543815088,0.865241164905614
1322.29546854045,0.865189626434947
1325.70119635359,0.865946258171068
1329.10262159031,0.865661077175815
1332.49974425059,0.867197914782382
1335.89256433444,0.865896591518126
1339.28108184186,0.866550368665726
1343.79241228842,0.867268158594465
1347.17089045084,0.869697448511355
1350.54506603683,0.868570265272198
1353.91493904639,0.869236011618911
1357.28050947952,0.870768062858734
1360.64177733622,0.870977303893376
1363.99874261649,0.871968752273915
1367.35140532033,0.872403681708696
1370.69976544774,0.870907116712636
1375.15755272095,0.873627098986601
1378.49587350336,0.875492411853624
1381.82989170933,0.874574406898158
1385.15960733888,0.875346292153518
1388.485020392,0.877357021157601
1391.80613086869,0.877250537796385
1395.12293876895,0.878155442551307
1398.43544409277,0.879726191557178
1401.74364684017,0.881365502870516
1406.14789094004,0.883971026156203
1409.44605434243,0.886749717853145
1412.7399151684,0.88728112732537
1416.02947341793,0.890219900456564
1419.31472909104,0.89034467095784
1422.59568218772,0.889299163810246
1425.87233270796,0.890240358263257
1429.14468065178,0.892561217678813
1432.41272601917,0.892050442430653
1436.76342694568,0.895786059349327
1440.02143296807,0.89553941609182
1443.27513641402,0.896826144714429
1446.52453728354,0.895831047754624
1449.76963557664,0.896487200581391
1453.0104312933,0.897960206046949
1456.24692443354,0.898028158737734
1459.47911499734,0.897182644800413
1462.70700298472,0.898751510190475
1467.00416073789,0.898492829731661
1470.22200938026,0.898739521435617
1473.4355554462,0.898644398909369
1476.64479893571,0.900301801647461
1479.8497398488,0.900247337978919
1483.05037818545,0.901932107273289
1486.24671394567,0.901736596315276
1489.43874712947,0.904434857115186
1492.62647773683,0.906038402435707
1496.87009231665,0.907648214587913
1500.04778357901,0.906579026802643
1503.22117226494,0.905231819139451
1506.39025837444,0.907075613725816
1509.55504190751,0.9070571141014
1512.71552286416,0.905234474431106
1515.87170124437,0.906100566422811
1519.02357704815,0.904678073552315
1522.1711502755,0.903490825625981
1526.36122168197,0.903431098742537
1529.49875556432,0.900941344386072
1532.63198687024,0.900932206308985
1535.76091559973,0.900327294063286
1538.88554175279,0.899792074067497
1542.00586532942,0.897567079387587
1545.12188632962,0.894590041060326
1548.23360475339,0.895946692021589
1551.34102060073,0.892112168928008
1555.47754883385,0.890023052713518
1558.57492533619,0.891033283868985
1561.6679992621,0.890284598989873
1564.75677061158,0.888538938311514
1567.84123938463,0.887717606526873
1570.92140558125,0.889048845213625
1573.99726920143,0.888731935765391
1577.06883024519,0.885503838495208
1580.13608871252,0.886150970980773
1584.21907377229,0.886075366608723
1587.27629289462,0.88775707666639
1590.32920944052,0.885547912635387
1593.37782340998,0.885464063443209
1596.42213480302,0.881984280391921
1599.46214361963,0.881565714076499
1602.49784985981,0.884342012984734
1605.52925352355,0.878978034352553
1608.55635461087,0.879474655340891
1612.58579649729,0.88224748534887
1615.60285823961,0.876008673102924
1618.61561740549,0.875831130448268
1621.62407399495,0.875042480294709
1624.62822800797,0.878237856515814
1627.62807944457,0.879402158925983
1630.62362830474,0.874580282740343
1633.61487458847,0.872689008864939
1636.60181829578,0.876668992302102
1640.57771700885,0.872663387513163
1643.55462137116,0.878346177900949
1646.52722315703,0.875162786067594
1649.49552236647,0.873943802609067
1652.45951899949,0.880926526624774
1655.41921305607,0.873047511992972
1658.37460453623,0.8763655256275
1661.32569343995,0.87213417803766
1664.27247976724,0.870765721200976
1668.19483530697,0.859749982781555
1671.13158228926,0.86302296605912
1674.06402669512,0.844624261007669
1676.99216852456,0.828585893560657
1679.91600777756,0.804510852326636
1682.83554445413,0.77069858000485
1685.75077855427,0.737337265488343
1688.66171007799,0.705245849721626
1691.56833902527,0.683076322139899
1695.43715139165,0.660067790630286
1698.33374099393,0.643899019158879
1701.22602801978,0.650117342750983
##END=
