##TITLE=Column 1
##JCAMP-DX=4.24
##DATA TYPE=INFRARED SPECTRUM
##Method:,Column 1,Built-In Reference,,,Model Name,NIR-S-G1
##Host Date-Time:,27/10/20 @ 13:12:16,13/5/20 @ 16:0:36,,,GUI Version,3.6.4
##Header Version:,1,1,,,Tiva Version,2.4.4.0
##System Temp (C):,48.25,34.7,,,DLPC Version,2.2.0
##Detector Temp (C),0,0,,,UUID,DE:67:0C:88:67:4B:68:21
##Humidity (%):,29.91,35.27,,,Main Board Version,D
##Lamp PD:,1920,1767
##Shift Vector Coefficients:,-7.40266672958336,0.0577935962102471,-0.000112288131265282
##Pixel to Wavelength Coefficients:,1779.07784909224,-0.923938295271985,-0.000239032023878199
##Serial Number:,947R033,947R033
##Scan Config Name:,Column 1,SystemTest
##Scan Config Type:,Column,Column
##Start wavelength (nm):,900,900
##End wavelength (nm):,1700,1700
##Pattern Pixel Width (nm):,7.03,7.03
##Exposure (ms):,0.635,0.635
##Digital Resolution:,228,228
##NPOINTS=228
##Num Repeats:,6,30
##PGA Gain:,64,64
##Total Measurement Time in sec:,2.0771509
##XUNITS=Wavelength(nm)
##YUNITS=Reflectance(unitless)
##FIRSTX=901.938585242429
##LASTX=1701.22602801978
##PEAK TABLE=X+(Y..Y)
901.938585242429,0.19226150345525
905.839109344998,0.194409931905959
909.735330871137,0.197139342013259
913.627249820846,0.194961656008838
917.514866194126,0.190630353357916
921.398179990975,0.187351865210223
925.277191211395,0.18646503391662
929.151899855385,0.182343341062206
933.022305922945,0.185368960709816
938.17615444969,0.188399885955047
942.036521172247,0.189336480616828
945.892585318375,0.188392463601827
949.744346888073,0.190060523740088
953.59180588134,0.189953323809312
957.434962298178,0.188983448082741
961.273816138587,0.191833360596359
965.108367402565,0.19239483380348
968.938616090114,0.190772503298419
974.03892144351,0.191050366918092
977.859130786056,0.190634159306409
981.675037552172,0.191949840585035
985.486641741858,0.190688075910487
989.293943355114,0.191302982453812
993.096942391941,0.191007635918708
996.895638852337,0.189454469660125
1000.6900327363,0.190691044313604
1004.48012404384,0.190661684172453
1009.52688622389,0.191896260655865
1013.30693818642,0.190042880279598
1017.08268757253,0.191313533356289
1020.8541343822,0.191361403887522
1024.62127861545,0.192125326290693
1028.38412027226,0.191924727015143
1032.14265935265,0.192610699472438
1035.8968958566,0.193174527933721
1039.64682978413,0.193048635959831
1044.64004879083,0.193096636808422
1048.37994337335,0.193134918217538
1052.11553537944,0.1933071894428
1055.84682480911,0.192636281507429
1059.57381166234,0.192249324570312
1063.29649593914,0.192740526966035
1067.01487763952,0.193699806841884
1070.72895676346,0.193803692124575
1074.43873331097,0.193883080638981
1079.37840914432,0.194485421686513
1083.07814634683,0.194310307408498
1086.77358097292,0.195183764663516
1090.46471302257,0.19562203561229
1094.15154249579,0.196421964605044
1097.83406939258,0.195967782222581
1101.51229371294,0.197393476035098
1105.18621545688,0.197670344402086
1108.85583462438,0.197660827576016
1113.74196728438,0.197826095128543
1117.40154710688,0.198442482766862
1121.05682435295,0.19833441243421
1124.70779902259,0.198990974686082
1128.3544711158,0.198868242873107
1131.99684063258,0.199229208851409
1135.63490757293,0.200105400043527
1139.26867193685,0.199964674334834
1142.89813372434,0.198778854737916
1147.73072321099,0.199963185021563
1151.35014565348,0.199770037364579
1154.96526551954,0.199146372601114
1158.57608280917,0.198845732292095
1162.18259752237,0.198894783452688
1165.78480965914,0.199020929527148
1169.38271921947,0.197885958755306
1172.97632620338,0.19728176593998
1176.56563061086,0.196425192471284
1181.34467692417,0.196416119011897
1184.92394198664,0.19695967530388
1188.49890447269,0.196544056273774
1192.06956438231,0.196814773306806
1195.63592171549,0.196814816889312
1199.19797647225,0.197184831936005
1202.75572865258,0.197330908637523
1206.30917825648,0.196884250491482
1209.85832528395,0.196442101111584
1214.5838284239,0.1965518548874
1218.12293610637,0.196064000322623
1221.6577412124,0.196277897635074
1225.18824374201,0.196125577931112
1228.71444369518,0.196112318216423
1232.23634107193,0.19674180128037
1235.75393587224,0.196524963516321
1239.26722809613,0.196526547427276
1242.77621774359,0.196297037868974
1247.44817771019,0.196874241209782
1250.94712801265,0.196084829973739
1254.44177573867,0.196473696081842
1257.93212088826,0.196122193477204
1261.41816346143,0.196186093903954
1264.89990345816,0.196179352423418
1268.37734087847,0.196352263237626
1271.85047572234,0.195882036389728
1275.31930798978,0.196354796589466
1279.93772478304,0.196353220523237
1283.39651770548,0.196129214095222
1286.8510080515,0.196278543921425
1290.30119582108,0.196567585037519
1293.74708101423,0.197052977895004
1297.18866363095,0.196811008421192
1300.62594367125,0.196648311578015
1304.05892113511,0.196984284916599
1307.48759602254,0.197162066363283
1312.05246964245,0.196720994154311
1315.47110518488,0.197359015068775
1318.88543815088,0.197108824053205
1322.29546854045,0.197543750530095
1325.70119635359,0.196947376620034
1329.10262159031,0.196650460429238
1332.49974425059,0.197072593594186
1335.89256433444,0.196401036951228
1339.28108184186,0.196821774037749
1343.79241228842,0.196701177220789
1347.17089045084,0.195421731862553
1350.54506603683,0.196017176849588
1353.91493904639,0.194939094166808
1357.28050947952,0.195282217085915
1360.64177733622,0.194922077045899
1363.99874261649,0.195297510195176
1367.35140532033,0.195147997104356
1370.69976544774,0.195303104213359
1375.15755272095,0.195053255131172
1378.49587350336,0.193950419660061
1381.82989170933,0.193416954672527
1385.15960733888,0.193857600949983
1388.485020392,0.193095293528013
1391.80613086869,0.192914037637277
1395.12293876895,0.192365020098423
1398.43544409277,0.19188637411367
1401.74364684017,0.190400249975407
1406.14789094004,0.189868103012336
1409.44605434243,0.189468312879656
1412.7399151684,0.188773407171252
1416.02947341793,0.188515780368788
1419.31472909104,0.187837304506423
1422.59568218772,0.187807989038367
1425.87233270796,0.187489029467727
1429.14468065178,0.187149935372684
1432.41272601917,0.187252223544738
1436.76342694568,0.186640081866788
1440.02143296807,0.18698151352849
1443.27513641402,0.186693615631966
1446.52453728354,0.18652768732705
1449.76963557664,0.186266769111838
1453.0104312933,0.185926064130027
1456.24692443354,0.18681726920697
1459.47911499734,0.186071501003974
1462.70700298472,0.186131704047459
1467.00416073789,0.18579377489164
1470.22200938026,0.185770466039225
1473.4355554462,0.186223091503978
1476.64479893571,0.185493957837705
1479.8497398488,0.185805625819035
1483.05037818545,0.184848559136095
1486.24671394567,0.184556495917585
1489.43874712947,0.184004565870121
1492.62647773683,0.183809867716571
1496.87009231665,0.183766486748191
1500.04778357901,0.183794737577659
1503.22117226494,0.183948060398103
1506.39025837444,0.183616964675436
1509.55504190751,0.183928089676771
1512.71552286416,0.184132004378394
1515.87170124437,0.184166189058405
1519.02357704815,0.184965110037574
1522.1711502755,0.184979975471309
1526.36122168197,0.185387207056808
1529.49875556432,0.185920831678477
1532.63198687024,0.186411103133371
1535.76091559973,0.186975515739881
1538.88554175279,0.187424395890609
1542.00586532942,0.188214065663234
1545.12188632962,0.188513666273992
1548.23360475339,0.189288883790849
1551.34102060073,0.188983724703427
1555.47754883385,0.190429231978111
1558.57492533619,0.190804743988482
1561.6679992621,0.190949332772252
1564.75677061158,0.190747118572533
1567.84123938463,0.191507558712977
1570.92140558125,0.191304958970939
1573.99726920143,0.190996711446963
1577.06883024519,0.190496028092108
1580.13608871252,0.191779119804848
1584.21907377229,0.191138036198448
1587.27629289462,0.191504194321534
1590.32920944052,0.192247879359095
1593.37782340998,0.192157894631125
1596.42213480302,0.192683517891762
1599.46214361963,0.192322652128847
1602.49784985981,0.19262761918912
1605.52925352355,0.191675105401452
1608.55635461087,0.193267648543368
1612.58579649729,0.192382453005822
1615.60285823961,0.193087065773338
1618.61561740549,0.192513051291762
1621.62407399495,0.192617883365814
1624.62822800797,0.192210233132817
1627.62807944457,0.192019882902214
1630.62362830474,0.190930953087598
1633.61487458847,0.192988873995787
1636.60181829578,0.191202449652573
1640.57771700885,0.19070148470651
1643.55462137116,0.190159667112122
1646.52722315703,0.189153936429998
1649.49552236647,0.188153804568185
1652.45951899949,0.187753804002153
1655.41921305607,0.1854079460031
1658.37460453623,0.186308329387715
1661.32569343995,0.186848881896666
1664.27247976724,0.188511501974509
1668.19483530697,0.191064942803191
1671.13158228926,0.195603599251162
1674.06402669512,0.201624249585676
1676.99216852456,0.210056437506188
1679.91600777756,0.224809762031853
1682.83554445413,0.239726224162944
1685.75077855427,0.25726484187789
1688.66171007799,0.270751382759929
1691.56833902527,0.288888888888889
1695.43715139165,0.30780792064327
1698.33374099393,0.31406712558405
1701.22602801978,0.315294216933561
##END=
