##TITLE=Column 1
##JCAMP-DX=4.24
##DATA TYPE=INFRARED SPECTRUM
##Method:,Column 1,Built-In Reference,,,Model Name,NIR-S-G1
##Host Date-Time:,27/10/20 @ 13:11:27,13/5/20 @ 16:0:36,,,GUI Version,3.6.4
##Header Version:,1,1,,,Tiva Version,2.4.4.0
##System Temp (C):,47.78,34.7,,,DLPC Version,2.2.0
##Detector Temp (C),0,0,,,UUID,DE:67:0C:88:67:4B:68:21
##Humidity (%):,30.42,35.27,,,Main Board Version,D
##Lamp PD:,1918,1767
##Shift Vector Coefficients:,-7.40266672958336,0.0577935962102471,-0.000112288131265282
##Pixel to Wavelength Coefficients:,1779.07784909224,-0.923938295271985,-0.000239032023878199
##Serial Number:,947R033,947R033
##Scan Config Name:,Column 1,SystemTest
##Scan Config Type:,Column,Column
##Start wavelength (nm):,900,900
##End wavelength (nm):,1700,1700
##Pattern Pixel Width (nm):,7.03,7.03
##Exposure (ms):,0.635,0.635
##Digital Resolution:,228,228
##NPOINTS=228
##Num Repeats:,6,30
##PGA Gain:,64,64
##Total Measurement Time in sec:,2.0334805
##XUNITS=Wavelength(nm)
##YUNITS=Absorbance(AU)
##FIRSTX=901.938585242429
##LASTX=1701.22602801978
##PEAK TABLE=X+(Y..Y)
901.938585242429,0.909356971379593
905.839109344998,0.908557806855363
909.735330871137,0.912214637752347
913.627249820846,0.907542920351342
917.514866194126,0.919027656063048
921.398179990975,0.92547474742685
925.277191211395,0.922806104690982
929.151899855385,0.931729667989372
933.022305922945,0.917224046089834
938.17615444969,0.909444327984926
942.036521172247,0.905419651399552
945.892585318375,0.895478912906775
949.744346888073,0.892162272643909
953.59180588134,0.894417831393629
957.434962298178,0.891237282217042
961.273816138587,0.891770725372096
965.108367402565,0.892753193859746
968.938616090114,0.893493321270562
974.03892144351,0.892496271750511
977.859130786056,0.887344122614727
981.675037552172,0.89090758001023
985.486641741858,0.895354127180519
989.293943355114,0.887041412165871
993.096942391941,0.8946031601116
996.895638852337,0.893276286852894
1000.6900327363,0.892582600093427
1004.48012404384,0.891927314480288
1009.52688622389,0.89166910273364
1013.30693818642,0.892939298017532
1017.08268757253,0.891980561091491
1020.8541343822,0.892959216460799
1024.62127861545,0.891945971822541
1028.38412027226,0.893526679279812
1032.14265935265,0.889409282665944
1035.8968958566,0.889752106733143
1039.64682978413,0.889287658082381
1044.64004879083,0.888759259052952
1048.37994337335,0.888643066626099
1052.11553537944,0.889851818920704
1055.84682480911,0.890460595653259
1059.57381166234,0.887510231556091
1063.29649593914,0.889877442730789
1067.01487763952,0.887656583566237
1070.72895676346,0.888395933964847
1074.43873331097,0.891350037168509
1079.37840914432,0.889410948839546
1083.07814634683,0.894893557838709
1086.77358097292,0.891631380836635
1090.46471302257,0.889588356323132
1094.15154249579,0.890988149999862
1097.83406939258,0.890583215464706
1101.51229371294,0.887982419552059
1105.18621545688,0.889470030416739
1108.85583462438,0.896116172035936
1113.74196728438,0.892585140212198
1117.40154710688,0.896935571352864
1121.05682435295,0.890935301983361
1124.70779902259,0.895775145573024
1128.3544711158,0.895302942867287
1131.99684063258,0.896105825953862
1135.63490757293,0.895201493526194
1139.26867193685,0.896974086266656
1142.89813372434,0.898693611782403
1147.73072321099,0.89877177926876
1151.35014565348,0.895906399034665
1154.96526551954,0.896874005678913
1158.57608280917,0.898638438457424
1162.18259752237,0.897979955239451
1165.78480965914,0.900530215474536
1169.38271921947,0.900101355406503
1172.97632620338,0.897574083034234
1176.56563061086,0.898394166561226
1181.34467692417,0.899355423164572
1184.92394198664,0.898283661847314
1188.49890447269,0.89725472461076
1192.06956438231,0.896697779467339
1195.63592171549,0.898598221282255
1199.19797647225,0.896914152437296
1202.75572865258,0.893438768216473
1206.30917825648,0.892142871693304
1209.85832528395,0.892944520678414
1214.5838284239,0.890076355797033
1218.12293610637,0.889773433798358
1221.6577412124,0.891712081193357
1225.18824374201,0.89159260318851
1228.71444369518,0.890730053084691
1232.23634107193,0.893158749378516
1235.75393587224,0.890909462052724
1239.26722809613,0.889972134445136
1242.77621774359,0.890540004190051
1247.44817771019,0.890196984811177
1250.94712801265,0.892371750651158
1254.44177573867,0.89105782597603
1257.93212088826,0.891962248359424
1261.41816346143,0.891634692649375
1264.89990345816,0.892765497076846
1268.37734087847,0.892616891778266
1271.85047572234,0.892135451246896
1275.31930798978,0.89198736917485
1279.93772478304,0.891619946731869
1283.39651770548,0.890824787586582
1286.8510080515,0.891384359197411
1290.30119582108,0.892722207013217
1293.74708101423,0.893806395048864
1297.18866363095,0.892985892167592
1300.62594367125,0.892308041794783
1304.05892113511,0.891201957049538
1307.48759602254,0.892856917935438
1312.05246964245,0.893669859516435
1315.47110518488,0.89183121325271
1318.88543815088,0.893854002512669
1322.29546854045,0.892813820140525
1325.70119635359,0.89331586728392
1329.10262159031,0.893271047190117
1332.49974425059,0.892781619564078
1335.89256433444,0.89081618575652
1339.28108184186,0.895168563014666
1343.79241228842,0.895828779973263
1347.17089045084,0.894325664515317
1350.54506603683,0.895088531065
1353.91493904639,0.895425345516046
1357.28050947952,0.894692123693025
1360.64177733622,0.898011824255866
1363.99874261649,0.898546918038585
1367.35140532033,0.898851815492261
1370.69976544774,0.896569800740576
1375.15755272095,0.896469816602461
1378.49587350336,0.896856518060632
1381.82989170933,0.898014544375672
1385.15960733888,0.898866126924059
1388.485020392,0.900317049013966
1391.80613086869,0.899113704597256
1395.12293876895,0.899969728380091
1398.43544409277,0.900174914023961
1401.74364684017,0.901094707390606
1406.14789094004,0.901515219398771
1409.44605434243,0.903432381020149
1412.7399151684,0.907801158613709
1416.02947341793,0.908210051454731
1419.31472909104,0.906207665977697
1422.59568218772,0.9058542744736
1425.87233270796,0.906105971971143
1429.14468065178,0.907484952112934
1432.41272601917,0.907479502556502
1436.76342694568,0.909702531932968
1440.02143296807,0.909540733106573
1443.27513641402,0.908831067878194
1446.52453728354,0.909789484712434
1449.76963557664,0.908644469878345
1453.0104312933,0.906369126491391
1456.24692443354,0.90668667806266
1459.47911499734,0.908950339473474
1462.70700298472,0.910346996808683
1467.00416073789,0.912094884433227
1470.22200938026,0.911561371840234
1473.4355554462,0.910812547103628
1476.64479893571,0.909926977889864
1479.8497398488,0.908981419685522
1483.05037818545,0.912025488587522
1486.24671394567,0.913437731041299
1489.43874712947,0.913510160445806
1492.62647773683,0.913995676949397
1496.87009231665,0.91604223759243
1500.04778357901,0.91628031292491
1503.22117226494,0.913206628711506
1506.39025837444,0.910567191590179
1509.55504190751,0.909927174434506
1512.71552286416,0.910726211732289
1515.87170124437,0.91231364785418
1519.02357704815,0.910344185381467
1522.1711502755,0.909706135345462
1526.36122168197,0.910154528514602
1529.49875556432,0.90898897256152
1532.63198687024,0.90483146785176
1535.76091559973,0.904119202221327
1538.88554175279,0.902118295414517
1542.00586532942,0.899938817693194
1545.12188632962,0.89796803972304
1548.23360475339,0.899910797011077
1551.34102060073,0.898590823375513
1555.47754883385,0.898894238441352
1558.57492533619,0.898231849494512
1561.6679992621,0.896160775399767
1564.75677061158,0.897397316260147
1567.84123938463,0.891771013374713
1570.92140558125,0.890747431623669
1573.99726920143,0.891474689760715
1577.06883024519,0.892885792117808
1580.13608871252,0.889097802233656
1584.21907377229,0.892453882876375
1587.27629289462,0.892380443128307
1590.32920944052,0.889609445300075
1593.37782340998,0.886409954159785
1596.42213480302,0.885656434527272
1599.46214361963,0.881308584994278
1602.49784985981,0.882340388837546
1605.52925352355,0.87985631371945
1608.55635461087,0.878522385299164
1612.58579649729,0.879360871520522
1615.60285823961,0.877355567973571
1618.61561740549,0.878602301327036
1621.62407399495,0.881428358236947
1624.62822800797,0.87840967061067
1627.62807944457,0.875746073331464
1630.62362830474,0.870350326930358
1633.61487458847,0.871487103157911
1636.60181829578,0.867987292448415
1640.57771700885,0.869129661733702
1643.55462137116,0.870059337211867
1646.52722315703,0.865608670030731
1649.49552236647,0.870303663439339
1652.45951899949,0.869707943179875
1655.41921305607,0.86906254132595
1658.37460453623,0.86806057230559
1661.32569343995,0.868138870008985
1664.27247976724,0.85313706397834
1668.19483530697,0.851940635787905
1671.13158228926,0.826864956655068
1674.06402669512,0.819042788771506
1676.99216852456,0.796388561399194
1679.91600777756,0.768954973553341
1682.83554445413,0.741651219669552
1685.75077855427,0.700901788511731
1688.66171007799,0.673262311551434
1691.56833902527,0.647405242197596
1695.43715139165,0.636150304647831
1698.33374099393,0.623931387886097
1701.22602801978,0.620487228027497
##END=
