##TITLE=Column 1
##JCAMP-DX=4.24
##DATA TYPE=INFRARED SPECTRUM
##Method:,Column 1,Built-In Reference,,,Model Name,NIR-S-G1
##Host Date-Time:,27/10/20 @ 13:12:43,13/5/20 @ 16:0:36,,,GUI Version,3.6.4
##Header Version:,1,1,,,Tiva Version,2.4.4.0
##System Temp (C):,48.44,34.7,,,DLPC Version,2.2.0
##Detector Temp (C),0,0,,,UUID,DE:67:0C:88:67:4B:68:21
##Humidity (%):,29.71,35.27,,,Main Board Version,D
##Lamp PD:,1921,1767
##Shift Vector Coefficients:,-7.40266672958336,0.0577935962102471,-0.000112288131265282
##Pixel to Wavelength Coefficients:,1779.07784909224,-0.923938295271985,-0.000239032023878199
##Serial Number:,947R033,947R033
##Scan Config Name:,Column 1,SystemTest
##Scan Config Type:,Column,Column
##Start wavelength (nm):,900,900
##End wavelength (nm):,1700,1700
##Pattern Pixel Width (nm):,7.03,7.03
##Exposure (ms):,0.635,0.635
##Digital Resolution:,228,228
##NPOINTS=228
##Num Repeats:,6,30
##PGA Gain:,64,64
##Total Measurement Time in sec:,2.0933465
##XUNITS=Wavelength(nm)
##YUNITS=Reflectance(unitless)
##FIRSTX=901.938585242429
##LASTX=1701.22602801978
##PEAK TABLE=X+(Y..Y)
901.938585242429,0.152873756952638
905.839109344998,0.151665751683088
909.735330871137,0.150113735937901
913.627249820846,0.150868082155327
917.514866194126,0.149335094799803
921.398179990975,0.145391075845012
925.277191211395,0.144577018166183
929.151899855385,0.142304132790654
933.022305922945,0.142773786351549
938.17615444969,0.14396987312499
942.036521172247,0.146637265711136
945.892585318375,0.147593627783647
949.744346888073,0.148203263887502
953.59180588134,0.149045635760262
957.434962298178,0.149831680576608
961.273816138587,0.149723669759073
965.108367402565,0.149223556330722
968.938616090114,0.148493497401653
974.03892144351,0.147301261217064
977.859130786056,0.148854802152829
981.675037552172,0.149051214279788
985.486641741858,0.149185955097265
989.293943355114,0.147525974284463
993.096942391941,0.14823057851062
996.895638852337,0.146889586478275
1000.6900327363,0.148129325482905
1004.48012404384,0.148162146455256
1009.52688622389,0.147467008425035
1013.30693818642,0.148305943612137
1017.08268757253,0.147626356652485
1020.8541343822,0.148014217753687
1024.62127861545,0.148577736721262
1028.38412027226,0.149060519678394
1032.14265935265,0.148816747861839
1035.8968958566,0.149882828190528
1039.64682978413,0.149468974530181
1044.64004879083,0.150438739217063
1048.37994337335,0.150935853309372
1052.11553537944,0.151151595800455
1055.84682480911,0.151598553766758
1059.57381166234,0.151457203625285
1063.29649593914,0.151197711215849
1067.01487763952,0.151027670574809
1070.72895676346,0.151899198893213
1074.43873331097,0.153186193869533
1079.37840914432,0.153814243538573
1083.07814634683,0.153876711054614
1086.77358097292,0.153588652921667
1090.46471302257,0.153820422637336
1094.15154249579,0.155197863353271
1097.83406939258,0.154558100749724
1101.51229371294,0.155210655745548
1105.18621545688,0.155163746186746
1108.85583462438,0.156681739565317
1113.74196728438,0.157516944278416
1117.40154710688,0.157010134504365
1121.05682435295,0.157490598836055
1124.70779902259,0.157279935551865
1128.3544711158,0.157105711009342
1131.99684063258,0.157334208298513
1135.63490757293,0.15756407189506
1139.26867193685,0.158175126092999
1142.89813372434,0.157418625742181
1147.73072321099,0.157089512990428
1151.35014565348,0.158103660615507
1154.96526551954,0.157251692418105
1158.57608280917,0.155980271270037
1162.18259752237,0.156730993148065
1165.78480965914,0.156162582993495
1169.38271921947,0.156201744710719
1172.97632620338,0.156811755242842
1176.56563061086,0.157195439594704
1181.34467692417,0.157163779524999
1184.92394198664,0.157222380471884
1188.49890447269,0.157116733674425
1192.06956438231,0.156856202031141
1195.63592171549,0.156114736295093
1199.19797647225,0.15728174755788
1202.75572865258,0.157954436600337
1206.30917825648,0.157963664107004
1209.85832528395,0.15866870884567
1214.5838284239,0.158436171981415
1218.12293610637,0.158884588850209
1221.6577412124,0.158704175916695
1225.18824374201,0.158343990219087
1228.71444369518,0.158699771607031
1232.23634107193,0.158380157979098
1235.75393587224,0.158408335096485
1239.26722809613,0.15877663922892
1242.77621774359,0.159227636832314
1247.44817771019,0.159663821665696
1250.94712801265,0.159695959715823
1254.44177573867,0.159532374788303
1257.93212088826,0.15933164893684
1261.41816346143,0.158724662088518
1264.89990345816,0.15939094556835
1268.37734087847,0.1585715211456
1271.85047572234,0.15927414467656
1275.31930798978,0.15884494346866
1279.93772478304,0.159103479185441
1283.39651770548,0.159226127035105
1286.8510080515,0.160061474685855
1290.30119582108,0.159937750007026
1293.74708101423,0.159238918959222
1297.18866363095,0.159587555233997
1300.62594367125,0.159503489466979
1304.05892113511,0.159396994855085
1307.48759602254,0.159308468064671
1312.05246964245,0.158654557793076
1315.47110518488,0.159484213529053
1318.88543815088,0.160103632232619
1322.29546854045,0.159690141641458
1325.70119635359,0.159853521037725
1329.10262159031,0.16013626315653
1332.49974425059,0.160246767514578
1335.89256433444,0.160311310303719
1339.28108184186,0.159892980856063
1343.79241228842,0.159583807656987
1347.17089045084,0.159353687918534
1350.54506603683,0.158925090597681
1353.91493904639,0.158632546972227
1357.28050947952,0.158687528666889
1360.64177733622,0.15885600557717
1363.99874261649,0.158690473780459
1367.35140532033,0.159041244947235
1370.69976544774,0.159031082596938
1375.15755272095,0.159296721322557
1378.49587350336,0.159089313894857
1381.82989170933,0.158678608234216
1385.15960733888,0.15883727767666
1388.485020392,0.158088922581822
1391.80613086869,0.157158854693622
1395.12293876895,0.157331399765528
1398.43544409277,0.156988909390681
1401.74364684017,0.157086397750221
1406.14789094004,0.156696683321967
1409.44605434243,0.156307318921608
1412.7399151684,0.156175115100056
1416.02947341793,0.156671772525815
1419.31472909104,0.156699617711829
1422.59568218772,0.156103897014896
1425.87233270796,0.156576117356026
1429.14468065178,0.156496450180769
1432.41272601917,0.15673998819108
1436.76342694568,0.155491740561144
1440.02143296807,0.155692109730698
1443.27513641402,0.155437670143725
1446.52453728354,0.155215016727834
1449.76963557664,0.155157297332969
1453.0104312933,0.154980504037353
1456.24692443354,0.155015161607474
1459.47911499734,0.15581231787027
1462.70700298472,0.15485279638649
1467.00416073789,0.155718631897429
1470.22200938026,0.156054112312245
1473.4355554462,0.155916548951429
1476.64479893571,0.155463301188537
1479.8497398488,0.155719989028739
1483.05037818545,0.155999411642131
1486.24671394567,0.155123150704696
1489.43874712947,0.155189955085734
1492.62647773683,0.154541831026568
1496.87009231665,0.153921705833923
1500.04778357901,0.153605051518886
1503.22117226494,0.153715707784664
1506.39025837444,0.153915093974136
1509.55504190751,0.153442835750284
1512.71552286416,0.15404633098977
1515.87170124437,0.154606781017831
1519.02357704815,0.154684648416532
1522.1711502755,0.155297274710485
1526.36122168197,0.156385589963553
1529.49875556432,0.156743800386017
1532.63198687024,0.156444266395079
1535.76091559973,0.15731743878935
1538.88554175279,0.157056865866011
1542.00586532942,0.156940410175161
1545.12188632962,0.156919703946977
1548.23360475339,0.158303197879752
1551.34102060073,0.157566871505898
1555.47754883385,0.157968387539093
1558.57492533619,0.157515690002148
1561.6679992621,0.157527251539601
1564.75677061158,0.157798854847937
1567.84123938463,0.157602988199435
1570.92140558125,0.15712236036663
1573.99726920143,0.157887279596977
1577.06883024519,0.157197440385623
1580.13608871252,0.157989273934931
1584.21907377229,0.157479796783279
1587.27629289462,0.157185272246804
1590.32920944052,0.157587181903864
1593.37782340998,0.157521025367027
1596.42213480302,0.157499671409325
1599.46214361963,0.156296976870823
1602.49784985981,0.156360018862684
1605.52925352355,0.154399062804043
1608.55635461087,0.155176355286358
1612.58579649729,0.153785912415092
1615.60285823961,0.153793151632107
1618.61561740549,0.153523786892023
1621.62407399495,0.153913671773631
1624.62822800797,0.152397556110509
1627.62807944457,0.150768791175614
1630.62362830474,0.151671321940625
1633.61487458847,0.150002429258562
1636.60181829578,0.149729124955836
1640.57771700885,0.150965105254922
1643.55462137116,0.148010336244624
1646.52722315703,0.146744513712042
1649.49552236647,0.14632720637924
1652.45951899949,0.146502135273602
1655.41921305607,0.141546327544503
1658.37460453623,0.143688138344644
1661.32569343995,0.144919028498525
1664.27247976724,0.147828856826656
1668.19483530697,0.148685415361429
1671.13158228926,0.153056436890002
1674.06402669512,0.157282836728869
1676.99216852456,0.163668767946137
1679.91600777756,0.171785195575803
1682.83554445413,0.186903000617647
1685.75077855427,0.202411488744136
1688.66171007799,0.216629060921307
1691.56833902527,0.229392212725546
1695.43715139165,0.245194258660855
1698.33374099393,0.25143560295324
1701.22602801978,0.25398231955609
##END=
