##TITLE=Column 1
##JCAMP-DX=4.24
##DATA TYPE=INFRARED SPECTRUM
##Method:,Column 1,Built-In Reference,,,Model Name,NIR-S-G1
##Host Date-Time:,27/10/20 @ 13:12:8,13/5/20 @ 16:0:36,,,GUI Version,3.6.4
##Header Version:,1,1,,,Tiva Version,2.4.4.0
##System Temp (C):,48.2,34.7,,,DLPC Version,2.2.0
##Detector Temp (C),0,0,,,UUID,DE:67:0C:88:67:4B:68:21
##Humidity (%):,29.91,35.27,,,Main Board Version,D
##Lamp PD:,1920,1767
##Shift Vector Coefficients:,-7.40266672958336,0.0577935962102471,-0.000112288131265282
##Pixel to Wavelength Coefficients:,1779.07784909224,-0.923938295271985,-0.000239032023878199
##Serial Number:,947R033,947R033
##Scan Config Name:,Column 1,SystemTest
##Scan Config Type:,Column,Column
##Start wavelength (nm):,900,900
##End wavelength (nm):,1700,1700
##Pattern Pixel Width (nm):,7.03,7.03
##Exposure (ms):,0.635,0.635
##Digital Resolution:,228,228
##NPOINTS=228
##Num Repeats:,6,30
##PGA Gain:,64,64
##Total Measurement Time in sec:,2.0956605
##XUNITS=Wavelength(nm)
##YUNITS=Intensity
##FIRSTX=901.938585242429
##LASTX=1701.22602801978
##PEAK TABLE=X+(Y..Y)
901.938585242429,11098
905.839109344998,12758
909.735330871137,13071
913.627249820846,14591
917.514866194126,16288
921.398179990975,18342
925.277191211395,20870
929.151899855385,23210
933.022305922945,26270
938.17615444969,29835
942.036521172247,32047
945.892585318375,34572
949.744346888073,36355
953.59180588134,38261
957.434962298178,40215
961.273816138587,42112
965.108367402565,44103
968.938616090114,45880
974.03892144351,48214
977.859130786056,50461
981.675037552172,51735
985.486641741858,53755
989.293943355114,55313
993.096942391941,57481
996.895638852337,57648
1000.6900327363,59283
1004.48012404384,60099
1009.52688622389,61731
1013.30693818642,62785
1017.08268757253,63895
1020.8541343822,63813
1024.62127861545,64771
1028.38412027226,63971
1032.14265935265,64748
1035.8968958566,64704
1039.64682978413,64861
1044.64004879083,64601
1048.37994337335,64955
1052.11553537944,64807
1055.84682480911,64669
1059.57381166234,64428
1063.29649593914,64588
1067.01487763952,64277
1070.72895676346,63744
1074.43873331097,63854
1079.37840914432,63806
1083.07814634683,63642
1086.77358097292,63782
1090.46471302257,63970
1094.15154249579,64258
1097.83406939258,64670
1101.51229371294,64875
1105.18621545688,64522
1108.85583462438,65069
1113.74196728438,65507
1117.40154710688,66176
1121.05682435295,66355
1124.70779902259,67460
1128.3544711158,67115
1131.99684063258,67888
1135.63490757293,68594
1139.26867193685,68385
1142.89813372434,69211
1147.73072321099,70253
1151.35014565348,70862
1154.96526551954,70698
1158.57608280917,71025
1162.18259752237,71730
1165.78480965914,72890
1169.38271921947,73347
1172.97632620338,73928
1176.56563061086,74882
1181.34467692417,75062
1184.92394198664,76157
1188.49890447269,77343
1192.06956438231,78226
1195.63592171549,78868
1199.19797647225,80208
1202.75572865258,81218
1206.30917825648,81950
1209.85832528395,83404
1214.5838284239,85000
1218.12293610637,86174
1221.6577412124,87318
1225.18824374201,88450
1228.71444369518,89166
1232.23634107193,90558
1235.75393587224,91450
1239.26722809613,93031
1242.77621774359,93412
1247.44817771019,95070
1250.94712801265,96249
1254.44177573867,96997
1257.93212088826,97812
1261.41816346143,100102
1264.89990345816,99969
1268.37734087847,100692
1271.85047572234,101737
1275.31930798978,102565
1279.93772478304,103686
1283.39651770548,104361
1286.8510080515,104818
1290.30119582108,105547
1293.74708101423,105867
1297.18866363095,106369
1300.62594367125,106784
1304.05892113511,107047
1307.48759602254,107670
1312.05246964245,108190
1315.47110518488,108314
1318.88543815088,108571
1322.29546854045,109007
1325.70119635359,109488
1329.10262159031,109293
1332.49974425059,109172
1335.89256433444,109646
1339.28108184186,109904
1343.79241228842,109756
1347.17089045084,110029
1350.54506603683,109392
1353.91493904639,109290
1357.28050947952,109258
1360.64177733622,109117
1363.99874261649,108868
1367.35140532033,108871
1370.69976544774,108743
1375.15755272095,108899
1378.49587350336,107708
1381.82989170933,107080
1385.15960733888,106177
1388.485020392,106308
1391.80613086869,105591
1395.12293876895,105090
1398.43544409277,104786
1401.74364684017,104010
1406.14789094004,103925
1409.44605434243,103519
1412.7399151684,103033
1416.02947341793,102544
1419.31472909104,102667
1422.59568218772,102157
1425.87233270796,101489
1429.14468065178,101383
1432.41272601917,101708
1436.76342694568,101410
1440.02143296807,101180
1443.27513641402,100770
1446.52453728354,101038
1449.76963557664,100711
1453.0104312933,100691
1456.24692443354,100407
1459.47911499734,99933
1462.70700298472,99270
1467.00416073789,98688
1470.22200938026,98308
1473.4355554462,97776
1476.64479893571,97627
1479.8497398488,96733
1483.05037818545,96180
1486.24671394567,95324
1489.43874712947,94715
1492.62647773683,93952
1496.87009231665,92788
1500.04778357901,91970
1503.22117226494,91419
1506.39025837444,90855
1509.55504190751,89928
1512.71552286416,88838
1515.87170124437,88198
1519.02357704815,87760
1522.1711502755,87227
1526.36122168197,85695
1529.49875556432,85317
1532.63198687024,84459
1535.76091559973,83663
1538.88554175279,82701
1542.00586532942,81778
1545.12188632962,80868
1548.23360475339,79776
1551.34102060073,78784
1555.47754883385,77338
1558.57492533619,76298
1561.6679992621,75095
1564.75677061158,73739
1567.84123938463,72259
1570.92140558125,71091
1573.99726920143,69891
1577.06883024519,68189
1580.13608871252,67259
1584.21907377229,64999
1587.27629289462,63971
1590.32920944052,62853
1593.37782340998,61344
1596.42213480302,60182
1599.46214361963,59201
1602.49784985981,57710
1605.52925352355,56325
1608.55635461087,55104
1612.58579649729,53084
1615.60285823961,52346
1618.61561740549,50865
1621.62407399495,49594
1624.62822800797,48120
1627.62807944457,46976
1630.62362830474,45544
1633.61487458847,44484
1636.60181829578,42688
1640.57771700885,41390
1643.55462137116,40585
1646.52722315703,39286
1649.49552236647,38190
1652.45951899949,36810
1655.41921305607,36210
1658.37460453623,34567
1661.32569343995,33704
1664.27247976724,32212
1668.19483530697,30669
1671.13158228926,29685
1674.06402669512,28559
1676.99216852456,26968
1679.91600777756,25917
1682.83554445413,23795
1685.75077855427,21682
1688.66171007799,20191
1691.56833902527,17951
1695.43715139165,15211
1698.33374099393,13012
1701.22602801978,10875
##END=
