***Scan Config Information***,,,,,,,***Reference Scan Information***,,,,,,,
Scan Config Name:,Column 1,,,,,,Scan Config Name:,Built-in Factory Reference,,,,,,,,
Scan Config Type:,Slew,Num Section:,1,,,,Scan Config Type:,Slew,Num Section:,1,,,,,
Section Config Type:,Column,,,,,,Section Config Type:,Column,,,,,,,
Start Wavelength (nm):,900,,,,,,Start Wavelength (nm):,900,,,,,,,
End Wavelength (nm):,1700,,,,,,End Wavelength (nm):,1700,,,,,,,
Pattern Width (nm):,7.03,,,,,,Pattern Width (nm):,7.03,,,,,,,
Exposure (ms):,0.635,,,,,,Exposure (ms):,0.635,,,,,,,
Digital Resolution:,228,,,,,,Digital Resolution:,228,,,,,,,
Num Repeats:,6,,,,,,Num Repeats:,30,,,,,,,
PGA Gain:,64,,,,,,PGA Gain:,64,,,,,,,
System Temp (C):,48.25,,,,,,System Temp (C):,34.7,,,,,,,
Humidity (%):,29.91,,,,,,Humidity (%):,35.27,,,,,,,
Lamp Intensity:,1920,,,,,,Lamp Intensity:,1767,,,,,,,
Data Date-Time:,20/10/27T13:12:16,,,,,,Data Date-Time:,20/5/13T16:0:36,,,,,,,
Total Measurement Time in sec:,2.0771509,,,,,,,,,,,,,,
,,,,,,,,,,,,,,,
***General Information***,,,,,,,***Calibration Coefficients***,,,,,,,
Model Name:,NIR-S-G1,,,,,,Shift Vector Coefficients:,-7.40266672958336,0.0577935962102471,-0.000112288131265282,,,,,
Serial Number:,947R033,(95UB122GC0A947R033),,,,,Pixel to Wavelength Coefficients:,1779.07784909224,-0.923938295271985,-0.000239032023878199,,,,,
GUI Version:,3.6.4,,,,,,Versions (Cal/Ref/Cfg):,1,3,1,,,,,
TIVA Version:,2.4.4,,,,,,***Lamp Usage * **,,,,,,,
DLPC Version:,2.2.0,,,,,,Total Time(HH:MM:SS):,19min 43sec ,,,,,,
UUID:,DE:67:0C:88:67:4B:68:21,,,,,,***Device/Error Status***,,,,,,,
Main Board Version:,D,,,,,,Device Status:,0x00000001,,,,,,
Detector Board Version:,B,,,,,,Error status:,0x00000000,Error Code:,0x00000000000000000000000000000000,,,,
,,,,,,,,,,,,,,,
***Scan Data***,,,,,,,,,,,,,,
Wavelength (nm),Absorbance (AU)
901.938585242429,0.71610766589492
905.839109344998,0.711281551849192
909.735330871137,0.705226697312284
913.627249820846,0.710050794900241
917.514866194126,0.719807947106345
921.398179990975,0.727341978863351
925.277191211395,0.72940259549488
929.151899855385,0.739110091921045
933.022305922945,0.731962984975709
938.17615444969,0.724919364436499
942.036521172247,0.722765699801807
945.892585318375,0.724936474587756
949.744346888073,0.721108078306529
953.59180588134,0.721353102744093
957.434962298178,0.723576231388215
961.273816138587,0.717075865032666
965.108367402565,0.715806593840638
968.938616090114,0.71948422148896
974.03892144351,0.718852123898892
977.859130786056,0.71979927647284
981.675037552172,0.716812244229402
985.486641741858,0.719676463368188
989.293943355114,0.718278259177427
993.096942391941,0.718949270600065
996.895638852337,0.722495144277454
1000.6900327363,0.719669702845519
1004.48012404384,0.719736575042111
1009.52688622389,0.716933487965655
1013.30693818642,0.721148396059313
1017.08268757253,0.718254307264552
1020.8541343822,0.718145651558909
1024.62127861545,0.716415381919644
1028.38412027226,0.716869068441065
1032.14265935265,0.715319591599986
1035.8968958566,0.714050140379843
1039.64682978413,0.714333262660555
1044.64004879083,0.714225290323473
1048.37994337335,0.714139199973905
1052.11553537944,0.713751993476504
1055.84682480911,0.715261913605363
1059.57381166234,0.716135177330962
1063.29649593914,0.715026957959123
1067.01487763952,0.71287081236063
1070.72895676346,0.712637953528516
1074.43873331097,0.712460088320638
1079.37840914432,0.711112947132042
1083.07814634683,0.711504161150592
1086.77358097292,0.709556309672839
1090.46471302257,0.708582226205854
1094.15154249579,0.706809949474734
1097.83406939258,0.707815322281565
1101.51229371294,0.704667205104973
1105.18621545688,0.704058481058571
1108.85583462438,0.704079390641932
1113.74196728438,0.703716421420158
1117.40154710688,0.702365348027695
1121.05682435295,0.702601926068686
1124.70779902259,0.701166620740641
1128.3544711158,0.701434563512693
1131.99684063258,0.700646989641954
1135.63490757293,0.698741191336494
1139.26867193685,0.699046719818538
1142.89813372434,0.701629815909848
1147.73072321099,0.699049954404577
1151.35014565348,0.699469649158233
1154.96526551954,0.700827599742563
1158.57608280917,0.701483725582618
1162.18259752237,0.701376607259785
1165.78480965914,0.701101249719986
1169.38271921947,0.703585020606294
1172.97632620338,0.704913053204973
1176.56563061086,0.706802812630437
1181.34467692417,0.706822874437732
1184.92394198664,0.705622680364473
1188.49890447269,0.706540085227422
1192.06956438231,0.705942305676926
1195.63592171549,0.705942209507112
1199.19797647225,0.705126495377817
1202.75572865258,0.704804884340393
1206.30917825648,0.705789023314448
1209.85832528395,0.706765429375056
1214.5838284239,0.706522853326664
1218.12293610637,0.707602140633509
1221.6577412124,0.707128602466016
1225.18824374201,0.707465763650141
1228.71444369518,0.707495126549441
1232.23634107193,0.706103356721802
1235.75393587224,0.706582275676401
1239.26722809613,0.706578775454328
1242.77621774359,0.707086253873583
1247.44817771019,0.705811102715413
1250.94712801265,0.70755600405551
1254.44177573867,0.706695584785622
1257.93212088826,0.707473258146037
1261.41816346143,0.70733177960038
1264.89990345816,0.707346703380361
1268.37734087847,0.706964088506384
1271.85047572234,0.708005389704745
1275.31930798978,0.706958485242081
1279.93772478304,0.706961971174819
1283.39651770548,0.707457711914176
1286.8510080515,0.707127172462244
1290.30119582108,0.706488097897622
1293.74708101423,0.705416997623571
1297.18866363095,0.705950613410428
1300.62594367125,0.706309778089726
1304.05892113511,0.705568419758402
1307.48759602254,0.705176638856385
1312.05246964245,0.706149289501952
1315.47110518488,0.704743030883863
1318.88543815088,0.705293933042557
1322.29546854045,0.704336705052267
1325.70119635359,0.705649799709021
1329.10262159031,0.706305032413943
1332.49974425059,0.705373767797665
1335.89256433444,0.706856223570415
1339.28108184186,0.705926858031941
1343.79241228842,0.706193040899358
1347.17089045084,0.70902714223858
1350.54506603683,0.707705870051003
1353.91493904639,0.710101056324471
1357.28050947952,0.709337302913312
1360.64177733622,0.710138969521573
1363.99874261649,0.709303293401284
1367.35140532033,0.709635901728313
1370.69976544774,0.709290853834427
1375.15755272095,0.70984679760182
1378.49587350336,0.712309276358581
1381.82989170933,0.713505458908745
1385.15960733888,0.712517166099027
1388.485020392,0.714228311511765
1391.80613086869,0.714636169211511
1395.12293876895,0.715873897783532
1398.43544409277,0.716955863499786
1401.74364684017,0.72033248576841
1406.14789094004,0.721547988655616
1409.44605434243,0.722463412039997
1412.7399151684,0.724059185526389
1416.02947341793,0.724652289807058
1419.31472909104,0.726218152578911
1422.59568218772,0.726285937514626
1425.87233270796,0.727024139035023
1429.14468065178,0.727810318521729
1432.41272601917,0.727573016525818
1436.76342694568,0.728995083717698
1440.02143296807,0.728201329128942
1443.27513641402,0.728870533380414
1446.52453728354,0.729256694359935
1449.76963557664,0.729864618419105
1453.0104312933,0.73065972419048
1456.24692443354,0.728582980490076
1459.47911499734,0.730320138983699
1462.70700298472,0.730179646642674
1467.00416073789,0.730968841340767
1470.22200938026,0.731023329393607
1473.4355554462,0.7299664678715
1476.64479893571,0.731670232250986
1479.8497398488,0.730941140583635
1483.05037818545,0.733183930331243
1486.24671394567,0.733870664142055
1489.43874712947,0.735171400318745
1492.62647773683,0.7356311774993
1496.87009231665,0.73573368744068
1500.04778357901,0.735666927518472
1503.22117226494,0.735304787136154
1506.39025837444,0.736087196094671
1509.55504190751,0.735351939820995
1512.71552286416,0.734870719280191
1515.87170124437,0.734790098640713
1519.02357704815,0.73291018482496
1522.1711502755,0.732875282478105
1526.36122168197,0.731920238348633
1529.49875556432,0.730671946558667
1532.63198687024,0.729528223495204
1535.76091559973,0.728215260176056
1538.88554175279,0.7271738803047
1542.00586532942,0.725347923886101
1545.12188632962,0.724657160194303
1548.23360475339,0.722874889734289
1551.34102060073,0.723575595698947
1555.47754883385,0.72026638414304
1558.57492533619,0.719410831610921
1561.6679992621,0.719081854828423
1564.75677061158,0.719542013779376
1567.84123938463,0.717814079958794
1570.92140558125,0.718273772127428
1573.99726920143,0.718974110305846
1577.06883024519,0.720114075083708
1580.13608871252,0.717198678954569
1584.21907377229,0.718652880358018
1587.27629289462,0.717821709681001
1590.32920944052,0.716138442099861
1593.37782340998,0.716341768242033
1596.42213480302,0.715155433215848
1599.46214361963,0.715969560716342
1602.49784985981,0.715281443060554
1605.52925352355,0.717434289254686
1608.55635461087,0.713840837305977
1612.58579649729,0.715834542018926
1615.60285823961,0.714246817113423
1618.61561740549,0.715539822457522
1621.62407399495,0.715303393813056
1624.62822800797,0.716223494530064
1627.62807944457,0.716653799485834
1630.62362830474,0.719123659529668
1633.61487458847,0.714467727787647
1636.60181829578,0.71850654791881
1640.57771700885,0.719645925740913
1643.55462137116,0.720881591542262
1646.52722315703,0.723184616295436
1649.49552236647,0.725486995594112
1652.45951899949,0.726411255173817
1655.41921305607,0.731871657293189
1658.37460453623,0.729767728430336
1661.32569343995,0.728509496623874
1664.27247976724,0.724662146298159
1668.19483530697,0.718818991353247
1671.13158228926,0.708623158134627
1674.06402669512,0.695457235976976
1676.99216852456,0.677664004292264
1679.91600777756,0.648184834097124
1682.83554445413,0.620284454968005
1685.75077855427,0.589619560939741
1688.66171007799,0.56742931670274
1691.56833902527,0.539269161468507
1695.43715139165,0.511720208911926
1698.33374099393,0.502977520222431
1701.22602801978,0.501283994925663
