##TITLE=Column 1
##JCAMP-DX=4.24
##DATA TYPE=INFRARED SPECTRUM
##Method:,Column 1,Built-In Reference,,,Model Name,NIR-S-G1
##Host Date-Time:,27/10/20 @ 13:11:30,13/5/20 @ 16:0:36,,,GUI Version,3.6.4
##Header Version:,1,1,,,Tiva Version,2.4.4.0
##System Temp (C):,47.81,34.7,,,DLPC Version,2.2.0
##Detector Temp (C),0,0,,,UUID,DE:67:0C:88:67:4B:68:21
##Humidity (%):,30.4,35.27,,,Main Board Version,D
##Lamp PD:,1919,1767
##Shift Vector Coefficients:,-7.40266672958336,0.0577935962102471,-0.000112288131265282
##Pixel to Wavelength Coefficients:,1779.07784909224,-0.923938295271985,-0.000239032023878199
##Serial Number:,947R033,947R033
##Scan Config Name:,Column 1,SystemTest
##Scan Config Type:,Column,Column
##Start wavelength (nm):,900,900
##End wavelength (nm):,1700,1700
##Pattern Pixel Width (nm):,7.03,7.03
##Exposure (ms):,0.635,0.635
##Digital Resolution:,228,228
##NPOINTS=228
##Num Repeats:,6,30
##PGA Gain:,64,64
##Total Measurement Time in sec:,2.1093365
##XUNITS=Wavelength(nm)
##YUNITS=Reflectance(unitless)
##FIRSTX=901.938585242429
##LASTX=1701.22602801978
##PEAK TABLE=X+(Y..Y)
901.938585242429,0.154580313500758
905.839109344998,0.158109162356612
909.735330871137,0.157026402669475
913.627249820846,0.152714722318541
917.514866194126,0.151353038529659
921.398179990975,0.148482584501237
925.277191211395,0.147954536454002
929.151899855385,0.145886614455314
933.022305922945,0.146203492955739
938.17615444969,0.147232825938891
942.036521172247,0.149101322303042
945.892585318375,0.149290226889522
949.744346888073,0.151931899140416
953.59180588134,0.151435125822083
957.434962298178,0.151612274838529
961.273816138587,0.153161732058982
965.108367402565,0.15323896743367
968.938616090114,0.152478526616226
974.03892144351,0.153185748451585
977.859130786056,0.153437070104762
981.675037552172,0.153901221983857
985.486641741858,0.153651546731022
989.293943355114,0.153623130714011
993.096942391941,0.153421540989035
996.895638852337,0.153791089523737
1000.6900327363,0.153463485177151
1004.48012404384,0.15395744559795
1009.52688622389,0.153861025793323
1013.30693818642,0.154355231335074
1017.08268757253,0.155034326055704
1020.8541343822,0.154016669622273
1024.62127861545,0.154940644800239
1028.38412027226,0.154633821291578
1032.14265935265,0.15455343925223
1035.8968958566,0.15429366624976
1039.64682978413,0.155101668121922
1044.64004879083,0.155072571329615
1048.37994337335,0.154476714081204
1052.11553537944,0.154913036929993
1055.84682480911,0.154692713635504
1059.57381166234,0.154848722910958
1063.29649593914,0.154815727128971
1067.01487763952,0.15480408523632
1070.72895676346,0.154784033512774
1074.43873331097,0.155587983696473
1079.37840914432,0.154719512124202
1083.07814634683,0.154551056474491
1086.77358097292,0.15493811265375
1090.46471302257,0.155212585149106
1094.15154249579,0.1549300117161
1097.83406939258,0.154686833519708
1101.51229371294,0.155155157070818
1105.18621545688,0.154826694494061
1108.85583462438,0.154385758857617
1113.74196728438,0.154002157740613
1117.40154710688,0.155419383266492
1121.05682435295,0.153750540323433
1124.70779902259,0.15404465387636
1128.3544711158,0.154640605941086
1131.99684063258,0.154281498293274
1135.63490757293,0.154215012491524
1139.26867193685,0.154321417165775
1142.89813372434,0.154623489067438
1147.73072321099,0.154838540023141
1151.35014565348,0.154375900194129
1154.96526551954,0.154305056206913
1158.57608280917,0.154853404575969
1162.18259752237,0.154048692761019
1165.78480965914,0.153604529675441
1169.38271921947,0.153058257294696
1172.97632620338,0.153269261068221
1176.56563061086,0.153669336062512
1181.34467692417,0.152698557702467
1184.92394198664,0.152912625265336
1188.49890447269,0.153333609435032
1192.06956438231,0.153342945468969
1195.63592171549,0.153304829740823
1199.19797647225,0.153469733097454
1202.75572865258,0.153408131955352
1206.30917825648,0.154351701527237
1209.85832528395,0.154377760611349
1214.5838284239,0.154257972122001
1218.12293610637,0.154353465099833
1221.6577412124,0.154522997194059
1225.18824374201,0.153813291361599
1228.71444369518,0.154984912727212
1232.23634107193,0.154888740246487
1235.75393587224,0.155074622007389
1239.26722809613,0.154690460938065
1242.77621774359,0.154176937571023
1247.44817771019,0.155015130113757
1250.94712801265,0.155447237943897
1254.44177573867,0.155258298703632
1257.93212088826,0.155332676704192
1261.41816346143,0.154969052029213
1264.89990345816,0.155356231241415
1268.37734087847,0.154986630018939
1271.85047572234,0.154964196890438
1275.31930798978,0.155923004254141
1279.93772478304,0.15542499272885
1283.39651770548,0.155592898388021
1286.8510080515,0.155682875413659
1290.30119582108,0.1560465399496
1293.74708101423,0.156040952609517
1297.18866363095,0.155951474085385
1300.62594367125,0.155454369218839
1304.05892113511,0.155769818491821
1307.48759602254,0.15608520661346
1312.05246964245,0.1560584978833
1315.47110518488,0.156229294498573
1318.88543815088,0.155942916063109
1322.29546854045,0.156264736648667
1325.70119635359,0.156030122107193
1329.10262159031,0.156115327688768
1332.49974425059,0.156176793712499
1335.89256433444,0.155657401211276
1339.28108184186,0.155120475161405
1343.79241228842,0.155568054498384
1347.17089045084,0.155122523271966
1350.54506603683,0.154922315220523
1353.91493904639,0.154248360141183
1357.28050947952,0.154606712773516
1360.64177733622,0.154019834933771
1363.99874261649,0.154051190693092
1367.35140532033,0.153957005975639
1370.69976544774,0.153865261539361
1375.15755272095,0.153795456132959
1378.49587350336,0.153390450271358
1381.82989170933,0.152809551735722
1385.15960733888,0.153090933635046
1388.485020392,0.152832748613129
1391.80613086869,0.15224609554644
1395.12293876895,0.152141660739544
1398.43544409277,0.151319400074176
1401.74364684017,0.150765260362117
1406.14789094004,0.149905821004236
1409.44605434243,0.149387784516888
1412.7399151684,0.149180618012198
1416.02947341793,0.148409140187308
1419.31472909104,0.148886880533195
1422.59568218772,0.147903716269537
1425.87233270796,0.148067665072868
1429.14468065178,0.147386574377611
1432.41272601917,0.147569330546678
1436.76342694568,0.147391904388604
1440.02143296807,0.147533689146448
1443.27513641402,0.147123969155101
1446.52453728354,0.146639504019147
1449.76963557664,0.1466949647884
1453.0104312933,0.14634489078246
1456.24692443354,0.146198595170292
1459.47911499734,0.145950478503799
1462.70700298472,0.14557020045026
1467.00416073789,0.146290166089825
1470.22200938026,0.14591796642672
1473.4355554462,0.145988626897026
1476.64479893571,0.144952450044948
1479.8497398488,0.145404565263767
1483.05037818545,0.144698037581359
1486.24671394567,0.144352627950826
1489.43874712947,0.144532122385171
1492.62647773683,0.14362879173138
1496.87009231665,0.143320762995548
1500.04778357901,0.143030657231066
1503.22117226494,0.142821097069111
1506.39025837444,0.142456628811848
1509.55504190751,0.143097320566306
1512.71552286416,0.143283216856818
1515.87170124437,0.142930090118363
1519.02357704815,0.143148148148148
1522.1711502755,0.14332325775747
1526.36122168197,0.143629286192448
1529.49875556432,0.14452364528244
1532.63198687024,0.143774235911961
1535.76091559973,0.14499107716468
1538.88554175279,0.144785125162784
1542.00586532942,0.145597511956107
1545.12188632962,0.145532133890218
1548.23360475339,0.145859117006055
1551.34102060073,0.145328608395498
1555.47754883385,0.146264764534438
1558.57492533619,0.14585457813979
1561.6679992621,0.146623398693868
1564.75677061158,0.146131361108684
1567.84123938463,0.146879478980611
1570.92140558125,0.146544113739721
1573.99726920143,0.146003008676182
1577.06883024519,0.146185520192096
1580.13608871252,0.146594428658876
1584.21907377229,0.146796253050695
1587.27629289462,0.146914561823992
1590.32920944052,0.147331526861451
1593.37782340998,0.147084167753002
1596.42213480302,0.147937682778563
1599.46214361963,0.147895541310212
1602.49784985981,0.147561739759565
1605.52925352355,0.148195213858498
1608.55635461087,0.148668988947663
1612.58579649729,0.148911226315333
1615.60285823961,0.148572433548474
1618.61561740549,0.148699326456806
1621.62407399495,0.148942395269909
1624.62822800797,0.147999811525232
1627.62807944457,0.150264710005068
1630.62362830474,0.150384302804537
1633.61487458847,0.151002712195735
1636.60181829578,0.149693793428336
1640.57771700885,0.151701475501882
1643.55462137116,0.151183411340735
1646.52722315703,0.150441812493666
1649.49552236647,0.151716448168671
1652.45951899949,0.150500094357426
1655.41921305607,0.153285728769861
1658.37460453623,0.152522565177853
1661.32569343995,0.153258819201478
1664.27247976724,0.15335421507651
1668.19483530697,0.155598978299824
1671.13158228926,0.161106904448894
1674.06402669512,0.165338994507393
1676.99216852456,0.171985874121258
1679.91600777756,0.182740171555545
1682.83554445413,0.199672503195967
1685.75077855427,0.214629248371528
1688.66171007799,0.228559733232164
1691.56833902527,0.238473409306743
1695.43715139165,0.255459532576839
1698.33374099393,0.251810108071477
1701.22602801978,0.257864421798848
##END=
