##TITLE=Column 1
##JCAMP-DX=4.24
##DATA TYPE=INFRARED SPECTRUM
##Method:,Column 1,Built-In Reference,,,Model Name,NIR-S-G1
##Host Date-Time:,27/10/20 @ 13:12:47,13/5/20 @ 16:0:36,,,GUI Version,3.6.4
##Header Version:,1,1,,,Tiva Version,2.4.4.0
##System Temp (C):,48.49,34.7,,,DLPC Version,2.2.0
##Detector Temp (C),0,0,,,UUID,DE:67:0C:88:67:4B:68:21
##Humidity (%):,29.71,35.27,,,Main Board Version,D
##Lamp PD:,1921,1767
##Shift Vector Coefficients:,-7.40266672958336,0.0577935962102471,-0.000112288131265282
##Pixel to Wavelength Coefficients:,1779.07784909224,-0.923938295271985,-0.000239032023878199
##Serial Number:,947R033,947R033
##Scan Config Name:,Column 1,SystemTest
##Scan Config Type:,Column,Column
##Start wavelength (nm):,900,900
##End wavelength (nm):,1700,1700
##Pattern Pixel Width (nm):,7.03,7.03
##Exposure (ms):,0.635,0.635
##Digital Resolution:,228,228
##NPOINTS=228
##Num Repeats:,6,30
##PGA Gain:,64,64
##Total Measurement Time in sec:,2.0840992
##XUNITS=Wavelength(nm)
##YUNITS=Reflectance(unitless)
##FIRSTX=901.938585242429
##LASTX=1701.22602801978
##PEAK TABLE=X+(Y..Y)
901.938585242429,0.145036237990898
905.839109344998,0.146638157704643
909.735330871137,0.145555447376107
913.627249820846,0.146021659718246
917.514866194126,0.144602363462153
921.398179990975,0.140373814921682
925.277191211395,0.137493847485531
929.151899855385,0.137845933385744
933.022305922945,0.137771759706738
938.17615444969,0.139744666022524
942.036521172247,0.141183783103823
945.892585318375,0.141422904437744
949.744346888073,0.14195779983887
953.59180588134,0.14244669782655
957.434962298178,0.141841834529527
961.273816138587,0.142651835580586
965.108367402565,0.141874120226792
968.938616090114,0.141121193354695
974.03892144351,0.141547086118436
977.859130786056,0.141631946922473
981.675037552172,0.140944163278852
985.486641741858,0.141370027058651
989.293943355114,0.140351808358655
993.096942391941,0.141297826633895
996.895638852337,0.14151660424154
1000.6900327363,0.141539097200702
1004.48012404384,0.140694501171455
1009.52688622389,0.141684887357266
1013.30693818642,0.141380945727617
1017.08268757253,0.141585982441089
1020.8541343822,0.141123156279636
1024.62127861545,0.141145400115759
1028.38412027226,0.141532075601388
1032.14265935265,0.14178449016608
1035.8968958566,0.140943123604361
1039.64682978413,0.141545918532342
1044.64004879083,0.142278627472249
1048.37994337335,0.142018975967835
1052.11553537944,0.142265596254192
1055.84682480911,0.141620843177664
1059.57381166234,0.141359290271896
1063.29649593914,0.141411967697247
1067.01487763952,0.140936026494662
1070.72895676346,0.14174527663883
1074.43873331097,0.141008867849305
1079.37840914432,0.141053251891469
1083.07814634683,0.141513711690204
1086.77358097292,0.14199530302825
1090.46471302257,0.140834640096987
1094.15154249579,0.139793503730653
1097.83406939258,0.140996968055059
1101.51229371294,0.140595366817534
1105.18621545688,0.141093266202284
1108.85583462438,0.14019121806323
1113.74196728438,0.140721151496698
1117.40154710688,0.140999932785159
1121.05682435295,0.141044359394392
1124.70779902259,0.141438274908818
1128.3544711158,0.14116469823462
1131.99684063258,0.141479694221423
1135.63490757293,0.14099683979733
1139.26867193685,0.140974381756256
1142.89813372434,0.141044580481515
1147.73072321099,0.141325689842572
1151.35014565348,0.140799059275392
1154.96526551954,0.142389121598774
1158.57608280917,0.14218043567612
1162.18259752237,0.14136130994168
1165.78480965914,0.142637592261804
1169.38271921947,0.142971021758749
1172.97632620338,0.142125994046089
1176.56563061086,0.141789509883127
1181.34467692417,0.14189717473533
1184.92394198664,0.142905882220409
1188.49890447269,0.142834842335311
1192.06956438231,0.142793731544385
1195.63592171549,0.143110750148586
1199.19797647225,0.143076686408738
1202.75572865258,0.142951631271886
1206.30917825648,0.143560869454211
1209.85832528395,0.143364227962926
1214.5838284239,0.143651323752884
1218.12293610637,0.143498067863156
1221.6577412124,0.143896545692177
1225.18824374201,0.143541927233379
1228.71444369518,0.142433024178536
1232.23634107193,0.142883042999927
1235.75393587224,0.142823429845548
1239.26722809613,0.142599447313897
1242.77621774359,0.143057178052729
1247.44817771019,0.143035056434411
1250.94712801265,0.142557900765131
1254.44177573867,0.142228355958921
1257.93212088826,0.142490622882434
1261.41816346143,0.14262474168503
1264.89990345816,0.142237244161872
1268.37734087847,0.14211061076421
1271.85047572234,0.142468257161834
1275.31930798978,0.141894567094488
1279.93772478304,0.142234412324241
1283.39651770548,0.141933948187412
1286.8510080515,0.142530590133431
1290.30119582108,0.142005161737566
1293.74708101423,0.142890262571095
1297.18866363095,0.142369505152081
1300.62594367125,0.142193471558075
1304.05892113511,0.142055024621599
1307.48759602254,0.142689062178417
1312.05246964245,0.142083042035675
1315.47110518488,0.142918675893483
1318.88543815088,0.143045603400262
1322.29546854045,0.142188798733426
1325.70119635359,0.142141938746598
1329.10262159031,0.142268069128076
1332.49974425059,0.14259443927998
1335.89256433444,0.142091559869313
1339.28108184186,0.141775655166527
1343.79241228842,0.142000714011465
1347.17089045084,0.141451399345033
1350.54506603683,0.141370493795194
1353.91493904639,0.140891413889023
1357.28050947952,0.140869090124201
1360.64177733622,0.140445723795174
1363.99874261649,0.140338032224179
1367.35140532033,0.140571395170029
1370.69976544774,0.140556191229794
1375.15755272095,0.14031775073399
1378.49587350336,0.140303667695345
1381.82989170933,0.139675345749375
1385.15960733888,0.140116757291039
1388.485020392,0.13907471611729
1391.80613086869,0.139124326263314
1395.12293876895,0.138607070356584
1398.43544409277,0.138496857911028
1401.74364684017,0.137642708761291
1406.14789094004,0.136771794550608
1409.44605434243,0.136597165234251
1412.7399151684,0.136174369889779
1416.02947341793,0.1356841268398
1419.31472909104,0.135054914516442
1422.59568218772,0.134387564345231
1425.87233270796,0.13519791425315
1429.14468065178,0.134353399022161
1432.41272601917,0.134147227246741
1436.76342694568,0.133786949194711
1440.02143296807,0.133957062921628
1443.27513641402,0.133717994188983
1446.52453728354,0.133380668125895
1449.76963557664,0.133795829287378
1453.0104312933,0.133298773561066
1456.24692443354,0.133161860659917
1459.47911499734,0.132874497864553
1462.70700298472,0.132560041621079
1467.00416073789,0.132904161278089
1470.22200938026,0.132214464313822
1473.4355554462,0.132176705663612
1476.64479893571,0.131821165098248
1479.8497398488,0.131551519214945
1483.05037818545,0.131501660885233
1486.24671394567,0.130908588671837
1489.43874712947,0.130443683466091
1492.62647773683,0.129950632678893
1496.87009231665,0.130067062815125
1500.04778357901,0.130060094779504
1503.22117226494,0.129706834299708
1506.39025837444,0.129776512793758
1509.55504190751,0.129840255757609
1512.71552286416,0.129684934534585
1515.87170124437,0.129393054090964
1519.02357704815,0.129260601180891
1522.1711502755,0.129768713980269
1526.36122168197,0.12955754455271
1529.49875556432,0.130250771685584
1532.63198687024,0.130342480149298
1535.76091559973,0.130902990934399
1538.88554175279,0.13066705252496
1542.00586532942,0.130565091101135
1545.12188632962,0.130982341531908
1548.23360475339,0.131659734003055
1551.34102060073,0.131325387961214
1555.47754883385,0.132097385663884
1558.57492533619,0.131819881161657
1561.6679992621,0.131725081127449
1564.75677061158,0.132106298336348
1567.84123938463,0.131926719886548
1570.92140558125,0.131820963475822
1573.99726920143,0.131766022949902
1577.06883024519,0.131334893608652
1580.13608871252,0.131722291759933
1584.21907377229,0.131476028775247
1587.27629289462,0.130974603613569
1590.32920944052,0.131778196669808
1593.37782340998,0.131957151838602
1596.42213480302,0.133021719843591
1599.46214361963,0.132621159591534
1602.49784985981,0.133909980211408
1605.52925352355,0.133393783355064
1608.55635461087,0.133551528155959
1612.58579649729,0.133710365331814
1615.60285823961,0.133683629784353
1618.61561740549,0.134079899401708
1621.62407399495,0.134145596833037
1624.62822800797,0.134570984309476
1627.62807944457,0.134241937396892
1630.62362830474,0.134218898655564
1633.61487458847,0.134460890366132
1636.60181829578,0.13424508302909
1640.57771700885,0.13491223387119
1643.55462137116,0.136049553172758
1646.52722315703,0.134730744461407
1649.49552236647,0.135197323962698
1652.45951899949,0.136017976836999
1655.41921305607,0.135774394924755
1658.37460453623,0.138171788454746
1661.32569343995,0.138579065599048
1664.27247976724,0.136684213320483
1668.19483530697,0.140396149785101
1671.13158228926,0.144555366126717
1674.06402669512,0.147469244904192
1676.99216852456,0.153800455460576
1679.91600777756,0.1648398028725
1682.83554445413,0.176647179649234
1685.75077855427,0.191830638901077
1688.66171007799,0.201134162656496
1691.56833902527,0.217651946818613
1695.43715139165,0.225640640264522
1698.33374099393,0.228911795127867
1701.22602801978,0.234614005105808
##END=
