##TITLE=Column 1
##JCAMP-DX=4.24
##DATA TYPE=INFRARED SPECTRUM
##Method:,Column 1,Built-In Reference,,,Model Name,NIR-S-G1
##Host Date-Time:,27/10/20 @ 13:12:39,13/5/20 @ 16:0:36,,,GUI Version,3.6.4
##Header Version:,1,1,,,Tiva Version,2.4.4.0
##System Temp (C):,48.42,34.7,,,DLPC Version,2.2.0
##Detector Temp (C),0,0,,,UUID,DE:67:0C:88:67:4B:68:21
##Humidity (%):,29.8,35.27,,,Main Board Version,D
##Lamp PD:,1921,1767
##Shift Vector Coefficients:,-7.40266672958336,0.0577935962102471,-0.000112288131265282
##Pixel to Wavelength Coefficients:,1779.07784909224,-0.923938295271985,-0.000239032023878199
##Serial Number:,947R033,947R033
##Scan Config Name:,Column 1,SystemTest
##Scan Config Type:,Column,Column
##Start wavelength (nm):,900,900
##End wavelength (nm):,1700,1700
##Pattern Pixel Width (nm):,7.03,7.03
##Exposure (ms):,0.635,0.635
##Digital Resolution:,228,228
##NPOINTS=228
##Num Repeats:,6,30
##PGA Gain:,64,64
##Total Measurement Time in sec:,2.0971744
##XUNITS=Wavelength(nm)
##YUNITS=Absorbance(AU)
##FIRSTX=901.938585242429
##LASTX=1701.22602801978
##PEAK TABLE=X+(Y..Y)
901.938585242429,0.931836661856831
905.839109344998,0.906563067882297
909.735330871137,0.92622483736564
913.627249820846,0.915339953077424
917.514866194126,0.910684053388703
921.398179990975,0.918185325756872
925.277191211395,0.919119372178581
929.151899855385,0.918400960536555
933.022305922945,0.90865992557494
938.17615444969,0.898212720356745
942.036521172247,0.889720474719383
945.892585318375,0.886308912124648
949.744346888073,0.880356951249683
953.59180588134,0.881552939047949
957.434962298178,0.87354309225285
961.273816138587,0.874898280047755
965.108367402565,0.871406276852201
968.938616090114,0.871086093334644
974.03892144351,0.866290168785491
977.859130786056,0.870118636833676
981.675037552172,0.870394537043117
985.486641741858,0.866557785404498
989.293943355114,0.868941376644085
993.096942391941,0.870367317076644
996.895638852337,0.868562372850106
1000.6900327363,0.871883337538912
1004.48012404384,0.867882722165812
1009.52688622389,0.869320540705495
1013.30693818642,0.867818221056605
1017.08268757253,0.866968156539515
1020.8541343822,0.868028419227128
1024.62127861545,0.865924464706644
1028.38412027226,0.870729192154356
1032.14265935265,0.867099855941951
1035.8968958566,0.867230123835808
1039.64682978413,0.868461929332234
1044.64004879083,0.866422735520769
1048.37994337335,0.866870142059026
1052.11553537944,0.866622379755837
1055.84682480911,0.869190578891264
1059.57381166234,0.869174304684748
1063.29649593914,0.868252336763121
1067.01487763952,0.870446520882258
1070.72895676346,0.870189250536304
1074.43873331097,0.87062130108195
1079.37840914432,0.871142414791389
1083.07814634683,0.871080865440063
1086.77358097292,0.872621714765103
1090.46471302257,0.873643171046388
1094.15154249579,0.872729705563294
1097.83406939258,0.870079510124707
1101.51229371294,0.872688646746229
1105.18621545688,0.872969440837638
1108.85583462438,0.874955557255292
1113.74196728438,0.873633482140669
1117.40154710688,0.872622160092584
1121.05682435295,0.876014240146709
1124.70779902259,0.874943857686809
1128.3544711158,0.874462151165572
1131.99684063258,0.876072911265221
1135.63490757293,0.875121415144385
1139.26867193685,0.87608641739703
1142.89813372434,0.87622596418809
1147.73072321099,0.876256336615973
1151.35014565348,0.872345216032665
1154.96526551954,0.875335947972017
1158.57608280917,0.871992974455381
1162.18259752237,0.872660214354043
1165.78480965914,0.870217908819795
1169.38271921947,0.872997690060112
1172.97632620338,0.872096710931556
1176.56563061086,0.87281469501979
1181.34467692417,0.869127252959914
1184.92394198664,0.868546482080555
1188.49890447269,0.867863037043793
1192.06956438231,0.866686777397595
1195.63592171549,0.865769718229285
1199.19797647225,0.867104116628374
1202.75572865258,0.863828054515462
1206.30917825648,0.863081856299548
1209.85832528395,0.860728565054718
1214.5838284239,0.861789551508917
1218.12293610637,0.859666263716349
1221.6577412124,0.860738267546359
1225.18824374201,0.859579132204188
1228.71444369518,0.85762316430443
1232.23634107193,0.858747669965265
1235.75393587224,0.856840824654319
1239.26722809613,0.858466603258894
1242.77621774359,0.858106349234434
1247.44817771019,0.858370342874093
1250.94712801265,0.858424629410175
1254.44177573867,0.857481616347554
1257.93212088826,0.857767471432512
1261.41816346143,0.857772315644674
1264.89990345816,0.857477542174455
1268.37734087847,0.857833733038992
1271.85047572234,0.857968822369084
1275.31930798978,0.858672008638433
1279.93772478304,0.85892446716439
1283.39651770548,0.858911609188023
1286.8510080515,0.85845239585458
1290.30119582108,0.858332450404309
1293.74708101423,0.859261647525491
1297.18866363095,0.859582836313687
1300.62594367125,0.858851407556712
1304.05892113511,0.858675615208813
1307.48759602254,0.858709195514359
1312.05246964245,0.858586571014955
1315.47110518488,0.859484963422941
1318.88543815088,0.861801618100276
1322.29546854045,0.859964171586719
1325.70119635359,0.860283714636348
1329.10262159031,0.860801747543833
1332.49974425059,0.859864075727608
1335.89256433444,0.862338742521537
1339.28108184186,0.861120658797708
1343.79241228842,0.860861356961911
1347.17089045084,0.862092448303965
1350.54506603683,0.86255497050044
1353.91493904639,0.863531553503015
1357.28050947952,0.862703688688967
1360.64177733622,0.862405518556531
1363.99874261649,0.86368606941786
1367.35140532033,0.865243173367076
1370.69976544774,0.863964358011692
1375.15755272095,0.863880266424391
1378.49587350336,0.864698421875195
1381.82989170933,0.866972085360147
1385.15960733888,0.865740022160063
1388.485020392,0.86595989641042
1391.80613086869,0.867179586890658
1395.12293876895,0.867704955598461
1398.43544409277,0.870952115089906
1401.74364684017,0.869392583504797
1406.14789094004,0.872047207600643
1409.44605434243,0.872829702225674
1412.7399151684,0.873267502700531
1416.02947341793,0.875355250468655
1419.31472909104,0.875588717513278
1422.59568218772,0.876855767171389
1425.87233270796,0.876349953875464
1429.14468065178,0.875984090807501
1432.41272601917,0.876997428078908
1436.76342694568,0.876264977053481
1440.02143296807,0.874811748757224
1443.27513641402,0.878515715831089
1446.52453728354,0.876602213184274
1449.76963557664,0.875839364867275
1453.0104312933,0.875208473428684
1456.24692443354,0.878151037470248
1459.47911499734,0.878415288719479
1462.70700298472,0.877302729413054
1467.00416073789,0.878632623517308
1470.22200938026,0.876787477714239
1473.4355554462,0.876546368987974
1476.64479893571,0.876555400586176
1479.8497398488,0.877788367077629
1483.05037818545,0.879408163365343
1486.24671394567,0.880563771981343
1489.43874712947,0.878485586944427
1492.62647773683,0.880525759559276
1496.87009231665,0.883535951264339
1500.04778357901,0.880819772174838
1503.22117226494,0.881696591842757
1506.39025837444,0.88027148469518
1509.55504190751,0.880990337065328
1512.71552286416,0.879827389080604
1515.87170124437,0.877960494468843
1519.02357704815,0.876900940196043
1522.1711502755,0.875447948479747
1526.36122168197,0.875699719915182
1529.49875556432,0.873240357484393
1532.63198687024,0.873233086067925
1535.76091559973,0.871639853486448
1538.88554175279,0.870003842398186
1542.00586532942,0.867214850463879
1545.12188632962,0.864978990656092
1548.23360475339,0.86480966100501
1551.34102060073,0.865674861607324
1555.47754883385,0.861156399281153
1558.57492533619,0.863633326995165
1561.6679992621,0.857029930183592
1564.75677061158,0.857172857896294
1567.84123938463,0.857813365208738
1570.92140558125,0.854794907163259
1573.99726920143,0.854524695066099
1577.06883024519,0.854834883151058
1580.13608871252,0.853526897384341
1584.21907377229,0.850024536709454
1587.27629289462,0.849152890708072
1590.32920944052,0.847080110510648
1593.37782340998,0.848048693233923
1596.42213480302,0.845105175328711
1599.46214361963,0.841765308210669
1602.49784985981,0.843954915826847
1605.52925352355,0.838702806981216
1608.55635461087,0.840003678357997
1612.58579649729,0.840115666598405
1615.60285823961,0.838020271954215
1618.61561740549,0.836786388717999
1621.62407399495,0.836597711772958
1624.62822800797,0.834201573351954
1627.62807944457,0.834213505258414
1630.62362830474,0.832345837303735
1633.61487458847,0.834014105659013
1636.60181829578,0.830955782437913
1640.57771700885,0.831566255459262
1643.55462137116,0.83370321212888
1646.52722315703,0.832008603627868
1649.49552236647,0.831955758307667
1652.45951899949,0.83234684859567
1655.41921305607,0.832544769381832
1658.37460453623,0.829291533287979
1661.32569343995,0.8261956636618
1664.27247976724,0.826002447302055
1668.19483530697,0.819818778010361
1671.13158228926,0.80368829840829
1674.06402669512,0.795712614338388
1676.99216852456,0.778524084604834
1679.91600777756,0.749629853501859
1682.83554445413,0.713989352018147
1685.75077855427,0.683902426914136
1688.66171007799,0.656605584199779
1691.56833902527,0.63116237303227
1695.43715139165,0.602210145381542
1698.33374099393,0.603751697157815
1701.22602801978,0.606860299553746
##END=
