##TITLE=Column 1
##JCAMP-DX=4.24
##DATA TYPE=INFRARED SPECTRUM
##Method:,Column 1,Built-In Reference,,,Model Name,NIR-S-G1
##Host Date-Time:,27/10/20 @ 13:12:47,13/5/20 @ 16:0:36,,,GUI Version,3.6.4
##Header Version:,1,1,,,Tiva Version,2.4.4.0
##System Temp (C):,48.49,34.7,,,DLPC Version,2.2.0
##Detector Temp (C),0,0,,,UUID,DE:67:0C:88:67:4B:68:21
##Humidity (%):,29.71,35.27,,,Main Board Version,D
##Lamp PD:,1921,1767
##Shift Vector Coefficients:,-7.40266672958336,0.0577935962102471,-0.000112288131265282
##Pixel to Wavelength Coefficients:,1779.07784909224,-0.923938295271985,-0.000239032023878199
##Serial Number:,947R033,947R033
##Scan Config Name:,Column 1,SystemTest
##Scan Config Type:,Column,Column
##Start wavelength (nm):,900,900
##End wavelength (nm):,1700,1700
##Pattern Pixel Width (nm):,7.03,7.03
##Exposure (ms):,0.635,0.635
##Digital Resolution:,228,228
##NPOINTS=228
##Num Repeats:,6,30
##PGA Gain:,64,64
##Total Measurement Time in sec:,2.0840992
##XUNITS=Wavelength(nm)
##YUNITS=Absorbance(AU)
##FIRSTX=901.938585242429
##LASTX=1701.22602801978
##PEAK TABLE=X+(Y..Y)
901.938585242429,0.838523473673875
905.839109344998,0.833753004290612
909.735330871137,0.836971536558975
913.627249820846,0.835582719568841
917.514866194126,0.839824608630819
921.398179990975,0.852713897160739
925.277191211395,0.861716735018196
929.151899855385,0.86060604155808
933.022305922945,0.86083979447801
938.17615444969,0.854664759908044
942.036521172247,0.850215185104293
945.892585318375,0.849480247785482
949.744346888073,0.847840740271492
953.59180588134,0.846347614043529
957.434962298178,0.848195660367528
961.273816138587,0.845722635662071
965.108367402565,0.84809681855062
968.938616090114,0.850407759698314
974.03892144351,0.849099066572349
977.859130786056,0.848838774843609
981.675037552172,0.850952904242699
985.486641741858,0.849642658876193
989.293943355114,0.852781987339298
993.096942391941,0.849864518180922
996.895638852337,0.849192601076673
1000.6900327363,0.849123578845242
1004.48012404384,0.851722875966542
1009.52688622389,0.848676470764319
1013.30693818642,0.849609117575614
1017.08268757253,0.848979741348439
1020.8541343822,0.850401718922144
1024.62127861545,0.850333270807145
1028.38412027226,0.849145124252405
1032.14265935265,0.848371274115508
1035.8968958566,0.850956107827361
1039.64682978413,0.849102648972404
1044.64004879083,0.84686033300062
1048.37994337335,0.847653623169613
1052.11553537944,0.846900111605328
1055.84682480911,0.848872824252971
1059.57381166234,0.849675643975067
1063.29649593914,0.849513834634332
1067.01487763952,0.850977977026123
1070.72895676346,0.848491404137843
1074.43873331097,0.850753574316842
1079.37840914432,0.850616897014883
1083.07814634683,0.849201477999131
1086.77358097292,0.847726021128565
1090.46471302257,0.851290511723103
1094.15154249579,0.85451300998864
1097.83406939258,0.850790226146852
1101.51229371294,0.852028990829231
1105.18621545688,0.850493712829458
1108.85583462438,0.853279190835371
1113.74196728438,0.851640619779876
1117.40154710688,0.850781094373283
1121.05682435295,0.850644277341815
1124.70779902259,0.849433049291904
1128.3544711158,0.850273895909865
1131.99684063258,0.849305887492374
1135.63490757293,0.850790621202506
1139.26867193685,0.850859801335708
1142.89813372434,0.850643596585475
1147.73072321099,0.849778885973336
1151.35014565348,0.851400246847822
1154.96526551954,0.846523189140811
1158.57608280917,0.847160159319732
1162.18259752237,0.849669439040291
1165.78480965914,0.845766000709298
1169.38271921947,0.844751979077568
1172.97632620338,0.84732648478638
1176.56563061086,0.8483558986903
1181.34467692417,0.848026251540915
1184.92394198664,0.844949894628985
1188.49890447269,0.845165840261355
1192.06956438231,0.845290857093715
1195.63592171549,0.844327741817764
1199.19797647225,0.844431126470122
1202.75572865258,0.844810884388985
1206.30917825648,0.842963920093447
1209.85832528395,0.843559199688835
1214.5838284239,0.842690367611999
1218.12293610637,0.843153946470189
1221.6577412124,0.841949631392321
1225.18824374201,0.843021227107445
1228.71444369518,0.846389304549565
1232.23634107193,0.845019309127393
1235.75393587224,0.845200541733807
1239.26722809613,0.845882157716901
1242.77621774359,0.844490346104223
1247.44817771019,0.84455750833813
1250.94712801265,0.846008708458942
1254.44177573867,0.847013810014079
1257.93212088826,0.846213715054859
1261.41816346143,0.845805129145984
1264.89990345816,0.84698667072205
1268.37734087847,0.847373494033795
1271.85047572234,0.846281888463309
1275.31930798978,0.848034232633114
1279.93772478304,0.846995317287913
1283.39651770548,0.847913716261169
1286.8510080515,0.846091916705221
1290.30119582108,0.847695869184552
1293.74708101423,0.844997365720788
1297.18866363095,0.846583024480404
1300.62594367125,0.84712034264556
1304.05892113511,0.847543400259657
1307.48759602254,0.845609316427171
1312.05246964245,0.847457753105702
1315.47110518488,0.844911016082931
1318.88543815088,0.844525485977198
1322.29546854045,0.847134614857102
1325.70119635359,0.847277765288645
1329.10262159031,0.846892562723681
1332.49974425059,0.845897410228248
1335.89256433444,0.847431718068631
1339.28108184186,0.848398337097511
1343.79241228842,0.847709471881313
1347.17089045084,0.849392751813778
1350.54506603683,0.84964122504489
1353.91493904639,0.851115472570119
1357.28050947952,0.851184290504214
1360.64177733622,0.852491479391784
1363.99874261649,0.852824617305365
1367.35140532033,0.852103044776326
1370.69976544774,0.852150019798866
1375.15755272095,0.852887385577562
1378.49587350336,0.852930975878055
1381.82989170933,0.854880244923159
1385.15960733888,0.853509922074472
1388.485020392,0.856751817878743
1391.80613086869,0.856596925807881
1395.12293876895,0.858214615766549
1398.43544409277,0.858560079360409
1401.74364684017,0.861246789200586
1406.14789094004,0.864003454765048
1409.44605434243,0.86455831336237
1412.7399151684,0.865904625630929
1416.02947341793,0.867470955797146
1419.31472909104,0.869489607636931
1422.59568218772,0.87164091719081
1425.87233270796,0.869030008359879
1429.14468065178,0.871751341825565
1432.41272601917,0.872418299539825
1436.76342694568,0.873586249566415
1440.02143296807,0.873034383160488
1443.27513641402,0.873810146581339
1446.52453728354,0.874907111458807
1449.76963557664,0.873557424279023
1453.0104312933,0.875173846370926
1456.24692443354,0.875620145111276
1459.47911499734,0.876558363673282
1462.70700298472,0.877587368229319
1467.00416073789,0.876461420924694
1470.22200938026,0.878721030266032
1473.4355554462,0.87884507656866
1476.64479893571,0.880014854177382
1479.8497398488,0.880904132125159
1483.05037818545,0.881068761936681
1486.24671394567,0.883031859251969
1489.43874712947,0.884576946094146
1492.62647773683,0.886221601747555
1496.87009231665,0.885832666917743
1500.04778357901,0.885855933841878
1503.22117226494,0.887037140180728
1506.39025837444,0.886803899885815
1509.55504190751,0.886590637713488
1512.71552286416,0.887110472863667
1515.87170124437,0.888089036271108
1519.02357704815,0.888533828539167
1522.1711502755,0.886829999242039
1526.36122168197,0.887537291576603
1529.49875556432,0.885219694993519
1532.63198687024,0.884914019531099
1535.76091559973,0.883050430367
1538.88554175279,0.883833905230734
1542.00586532942,0.884172923893354
1545.12188632962,0.882787250086045
1548.23360475339,0.880547026663978
1551.34102060073,0.881651307531018
1555.47754883385,0.87910577741185
1558.57492533619,0.880019084221108
1561.6679992621,0.880331525279808
1564.75677061158,0.879076476348269
1567.84123938463,0.879667235355361
1570.92140558125,0.880015518437737
1573.99726920143,0.880196562031043
1577.06883024519,0.881619873389499
1580.13608871252,0.88034072185601
1584.21907377229,0.881153422228406
1587.27629289462,0.882812907243063
1590.32920944052,0.880156439888422
1593.37782340998,0.879567066831813
1596.42213480302,0.876077441453359
1599.46214361963,0.87738717909327
1602.49784985981,0.873187054136453
1605.52925352355,0.874864409681105
1608.55635461087,0.874351138223637
1612.58579649729,0.873834924586023
1615.60285823961,0.873921770969888
1618.61561740549,0.872636324558814
1621.62407399495,0.872423577949168
1624.62822800797,0.871048570964301
1627.62807944457,0.87211178867637
1630.62362830474,0.87218632914492
1633.61487458847,0.871404017283156
1636.60181829578,0.872101612164275
1640.57771700885,0.869948666622785
1643.55462137116,0.866302880234272
1646.52722315703,0.870533290495305
1649.49552236647,0.869031904546274
1652.45951899949,0.86640368923886
1655.41921305607,0.867182123953679
1658.37460453623,0.859580620993276
1661.32569343995,0.858302371322319
1664.27247976724,0.864281642445461
1668.19483530697,0.852644802106588
1671.13158228926,0.83996578198733
1674.06402669512,0.831298543489868
1676.99216852456,0.813042378424561
1679.91600777756,0.782937913508263
1682.83554445413,0.752893292124142
1685.75077855427,0.717082026763994
1688.66171007799,0.696514158179346
1691.56833902527,0.662237443880809
1695.43715139165,0.646582676616585
1698.33374099393,0.64033182887649
1701.22602801978,0.629646066565643
##END=
