##TITLE=Column 1
##JCAMP-DX=4.24
##DATA TYPE=INFRARED SPECTRUM
##Method:,Column 1,Built-In Reference,,,Model Name,NIR-S-G1
##Host Date-Time:,27/10/20 @ 13:12:1,13/5/20 @ 16:0:36,,,GUI Version,3.6.4
##Header Version:,1,1,,,Tiva Version,2.4.4.0
##System Temp (C):,48.12,34.7,,,DLPC Version,2.2.0
##Detector Temp (C),0,0,,,UUID,DE:67:0C:88:67:4B:68:21
##Humidity (%):,30.15,35.27,,,Main Board Version,D
##Lamp PD:,1919,1767
##Shift Vector Coefficients:,-7.40266672958336,0.0577935962102471,-0.000112288131265282
##Pixel to Wavelength Coefficients:,1779.07784909224,-0.923938295271985,-0.000239032023878199
##Serial Number:,947R033,947R033
##Scan Config Name:,Column 1,SystemTest
##Scan Config Type:,Column,Column
##Start wavelength (nm):,900,900
##End wavelength (nm):,1700,1700
##Pattern Pixel Width (nm):,7.03,7.03
##Exposure (ms):,0.635,0.635
##Digital Resolution:,228,228
##NPOINTS=228
##Num Repeats:,6,30
##PGA Gain:,64,64
##Total Measurement Time in sec:,2.0365701
##XUNITS=Wavelength(nm)
##YUNITS=Absorbance(AU)
##FIRSTX=901.938585242429
##LASTX=1701.22602801978
##PEAK TABLE=X+(Y..Y)
901.938585242429,0.778874700752211
905.839109344998,0.783390393902032
909.735330871137,0.786656102390651
913.627249820846,0.792162711180685
917.514866194126,0.791747176174073
921.398179990975,0.805643255709311
925.277191211395,0.822266469366137
929.151899855385,0.816930635431511
933.022305922945,0.822432711123102
938.17615444969,0.817973884295609
942.036521172247,0.811500071367091
945.892585318375,0.810553587905603
949.744346888073,0.812087130295258
953.59180588134,0.812462428537339
957.434962298178,0.813093170114797
961.273816138587,0.812528509870647
965.108367402565,0.813749562991818
968.938616090114,0.816415688932835
974.03892144351,0.819274366211169
977.859130786056,0.817636737337812
981.675037552172,0.819737110367216
985.486641741858,0.818014975035674
989.293943355114,0.819758360967713
993.096942391941,0.821492656502784
996.895638852337,0.820855465802815
1000.6900327363,0.821157060695233
1004.48012404384,0.825189947780739
1009.52688622389,0.824774350384995
1013.30693818642,0.823964866121271
1017.08268757253,0.822340972851561
1020.8541343822,0.822694921878385
1024.62127861545,0.823122058220975
1028.38412027226,0.823527749463491
1032.14265935265,0.824311889922347
1035.8968958566,0.82100031466791
1039.64682978413,0.822941289162389
1044.64004879083,0.821181440370178
1048.37994337335,0.821459626903396
1052.11553537944,0.818870660524753
1055.84682480911,0.819195522923059
1059.57381166234,0.820380892980969
1063.29649593914,0.820559656384909
1067.01487763952,0.81987492332923
1070.72895676346,0.818085574955975
1074.43873331097,0.818405852388934
1079.37840914432,0.817946482773673
1083.07814634683,0.816606229463773
1086.77358097292,0.815583213794739
1090.46471302257,0.816163925394536
1094.15154249579,0.816006158196484
1097.83406939258,0.815014561697218
1101.51229371294,0.817983221616303
1105.18621545688,0.815772187380834
1108.85583462438,0.817429609737972
1113.74196728438,0.816686239744253
1117.40154710688,0.815829253245953
1121.05682435295,0.814747770791969
1124.70779902259,0.815313941444589
1128.3544711158,0.815606869118139
1131.99684063258,0.814440206484765
1135.63490757293,0.814336967056534
1139.26867193685,0.815487613324824
1142.89813372434,0.814331516113481
1147.73072321099,0.814554135717264
1151.35014565348,0.813505283199572
1154.96526551954,0.812942578121245
1158.57608280917,0.81365290836973
1162.18259752237,0.815405334790372
1165.78480965914,0.813367340900918
1169.38271921947,0.814053970764462
1172.97632620338,0.815273946067081
1176.56563061086,0.81574879778767
1181.34467692417,0.816678533076201
1184.92394198664,0.816302319836047
1188.49890447269,0.815428694183084
1192.06956438231,0.815143840207612
1195.63592171549,0.813963999503914
1199.19797647225,0.814617663623444
1202.75572865258,0.814534888487543
1206.30917825648,0.816863010596734
1209.85832528395,0.812517841446567
1214.5838284239,0.813768914714262
1218.12293610637,0.812745753365705
1221.6577412124,0.815070874972229
1225.18824374201,0.814540450638951
1228.71444369518,0.813903970250696
1232.23634107193,0.814474515952976
1235.75393587224,0.814659775995071
1239.26722809613,0.813049572655303
1242.77621774359,0.815295053372815
1247.44817771019,0.813800685372189
1250.94712801265,0.814828027143077
1254.44177573867,0.815174185814784
1257.93212088826,0.812880537758688
1261.41816346143,0.813524005961692
1264.89990345816,0.815904662453451
1268.37734087847,0.816010826554186
1271.85047572234,0.81491793445982
1275.31930798978,0.814820750889285
1279.93772478304,0.81438786700922
1283.39651770548,0.816195169183595
1286.8510080515,0.814880525898206
1290.30119582108,0.814754922108651
1293.74708101423,0.814188220370673
1297.18866363095,0.814698324710828
1300.62594367125,0.814265035856441
1304.05892113511,0.812999937358429
1307.48759602254,0.815346674052731
1312.05246964245,0.81377562686692
1315.47110518488,0.813951099014913
1318.88543815088,0.81411432952697
1322.29546854045,0.812777089290933
1325.70119635359,0.812675404849695
1329.10262159031,0.813158451912144
1332.49974425059,0.812829439565767
1335.89256433444,0.814970894361818
1339.28108184186,0.816666090981221
1343.79241228842,0.817722901073353
1347.17089045084,0.81680625552711
1350.54506603683,0.815604708462343
1353.91493904639,0.820104873962468
1357.28050947952,0.819717877987381
1360.64177733622,0.820200263070304
1363.99874261649,0.81879697199857
1367.35140532033,0.820352437147816
1370.69976544774,0.820460260098953
1375.15755272095,0.819647186537339
1378.49587350336,0.821718547241413
1381.82989170933,0.82185874117399
1385.15960733888,0.823786702132771
1388.485020392,0.825102631909997
1391.80613086869,0.82514347615134
1395.12293876895,0.828202513728696
1398.43544409277,0.828316764126125
1401.74364684017,0.830471009434157
1406.14789094004,0.832582057854695
1409.44605434243,0.833434502696753
1412.7399151684,0.836945960968934
1416.02947341793,0.836860228110775
1419.31472909104,0.839914553048724
1422.59568218772,0.840837735141351
1425.87233270796,0.840981315604033
1429.14468065178,0.84234227568437
1432.41272601917,0.842090873696028
1436.76342694568,0.843132635195545
1440.02143296807,0.841655750665967
1443.27513641402,0.844944034334714
1446.52453728354,0.845364106307752
1449.76963557664,0.843539887364803
1453.0104312933,0.845828938916552
1456.24692443354,0.845428037754594
1459.47911499734,0.847164840536329
1462.70700298472,0.846893816832182
1467.00416073789,0.847378695048115
1470.22200938026,0.848532636364556
1473.4355554462,0.848171027663538
1476.64479893571,0.850508311893027
1479.8497398488,0.850033681224045
1483.05037818545,0.850796102562685
1486.24671394567,0.853395501120743
1489.43874712947,0.85607214755441
1492.62647773683,0.856051030403838
1496.87009231665,0.856693957107057
1500.04778357901,0.857714269926423
1503.22117226494,0.856911840863251
1506.39025837444,0.858988337298368
1509.55504190751,0.860707344647356
1512.71552286416,0.857023610523482
1515.87170124437,0.858698376091295
1519.02357704815,0.857156296737582
1522.1711502755,0.857699367329814
1526.36122168197,0.856448290498657
1529.49875556432,0.856464394374689
1532.63198687024,0.855864821334993
1535.76091559973,0.856733472370393
1538.88554175279,0.855418810107859
1542.00586532942,0.857309560967087
1545.12188632962,0.853473859189393
1548.23360475339,0.853951377759122
1551.34102060073,0.852946085531049
1555.47754883385,0.852527473037145
1558.57492533619,0.852905276110655
1561.6679992621,0.85207174049937
1564.75677061158,0.854491131295946
1567.84123938463,0.855128609973292
1570.92140558125,0.855226762498039
1573.99726920143,0.857223116130501
1577.06883024519,0.857505688746867
1580.13608871252,0.860814808526839
1584.21907377229,0.85785313276537
1587.27629289462,0.857218413032329
1590.32920944052,0.85499540690229
1593.37782340998,0.856805052191999
1596.42213480302,0.860431666902591
1599.46214361963,0.857800431779307
1602.49784985981,0.85835882529974
1605.52925352355,0.858456701877586
1608.55635461087,0.858978196771643
1612.58579649729,0.859122076051086
1615.60285823961,0.86267307189041
1618.61561740549,0.862508535106678
1621.62407399495,0.861050706793479
1624.62822800797,0.857082914827477
1627.62807944457,0.85978286749587
1630.62362830474,0.859145862396066
1633.61487458847,0.860564893748192
1636.60181829578,0.867129533586131
1640.57771700885,0.865126014856163
1643.55462137116,0.866879464698724
1646.52722315703,0.867550890902189
1649.49552236647,0.866920547401145
1652.45951899949,0.867342004284792
1655.41921305607,0.861726467326035
1658.37460453623,0.867867911096607
1661.32569343995,0.860688272871158
1664.27247976724,0.864736027267319
1668.19483530697,0.857140362293191
1671.13158228926,0.84940442426151
1674.06402669512,0.833041988331926
1676.99216852456,0.82544195671147
1679.91600777756,0.798283017163135
1682.83554445413,0.759727111256238
1685.75077855427,0.737077154989459
1688.66171007799,0.704366933192143
1691.56833902527,0.668968976025236
1695.43715139165,0.660844330038709
1698.33374099393,0.656532295137099
1701.22602801978,0.632624455844456
##END=
