##TITLE=Column 1
##JCAMP-DX=4.24
##DATA TYPE=INFRARED SPECTRUM
##Method:,Column 1,Built-In Reference,,,Model Name,NIR-S-G1
##Host Date-Time:,27/10/20 @ 13:11:45,13/5/20 @ 16:0:36,,,GUI Version,3.6.4
##Header Version:,1,1,,,Tiva Version,2.4.4.0
##System Temp (C):,47.96,34.7,,,DLPC Version,2.2.0
##Detector Temp (C),0,0,,,UUID,DE:67:0C:88:67:4B:68:21
##Humidity (%):,30.35,35.27,,,Main Board Version,D
##Lamp PD:,1921,1767
##Shift Vector Coefficients:,-7.40266672958336,0.0577935962102471,-0.000112288131265282
##Pixel to Wavelength Coefficients:,1779.07784909224,-0.923938295271985,-0.000239032023878199
##Serial Number:,947R033,947R033
##Scan Config Name:,Column 1,SystemTest
##Scan Config Type:,Column,Column
##Start wavelength (nm):,900,900
##End wavelength (nm):,1700,1700
##Pattern Pixel Width (nm):,7.03,7.03
##Exposure (ms):,0.635,0.635
##Digital Resolution:,228,228
##NPOINTS=228
##Num Repeats:,6,30
##PGA Gain:,64,64
##Total Measurement Time in sec:,2.0274067
##XUNITS=Wavelength(nm)
##YUNITS=Absorbance(AU)
##FIRSTX=901.938585242429
##LASTX=1701.22602801978
##PEAK TABLE=X+(Y..Y)
901.938585242429,0.893426133394963
905.839109344998,0.899802181858179
909.735330871137,0.896638014244127
913.627249820846,0.900523526501856
917.514866194126,0.909633082018029
921.398179990975,0.90347056415449
925.277191211395,0.919037799210291
929.151899855385,0.918884734376681
933.022305922945,0.93304851252001
938.17615444969,0.920916791348188
942.036521172247,0.914297767502529
945.892585318375,0.91838117612055
949.744346888073,0.912895567383924
953.59180588134,0.922262382713161
957.434962298178,0.919257773604873
961.273816138587,0.916781051006318
965.108367402565,0.918714248316082
968.938616090114,0.922995340218691
974.03892144351,0.921829370697132
977.859130786056,0.920452675704685
981.675037552172,0.922861938014271
985.486641741858,0.92024975188946
989.293943355114,0.921526541943463
993.096942391941,0.925739163080149
996.895638852337,0.926681734962021
1000.6900327363,0.921290044809156
1004.48012404384,0.922039483234153
1009.52688622389,0.922714828395871
1013.30693818642,0.921639130847622
1017.08268757253,0.922963800237628
1020.8541343822,0.919499206879101
1024.62127861545,0.922116926380173
1028.38412027226,0.920174109873437
1032.14265935265,0.921730166365489
1035.8968958566,0.920768048973476
1039.64682978413,0.921478251495382
1044.64004879083,0.923173394483091
1048.37994337335,0.919865717699824
1052.11553537944,0.924122166904543
1055.84682480911,0.924094017138917
1059.57381166234,0.921949183713357
1063.29649593914,0.924331526272235
1067.01487763952,0.922591091334966
1070.72895676346,0.922599182583794
1074.43873331097,0.921518068133762
1079.37840914432,0.921164619461601
1083.07814634683,0.922770795446803
1086.77358097292,0.920905368729918
1090.46471302257,0.919656718515581
1094.15154249579,0.921735268398898
1097.83406939258,0.919429954176661
1101.51229371294,0.917570134713222
1105.18621545688,0.918317666807404
1108.85583462438,0.914100581257495
1113.74196728438,0.913503938057116
1117.40154710688,0.914996237819793
1121.05682435295,0.914152538629772
1124.70779902259,0.911586169237541
1128.3544711158,0.910838335969874
1131.99684063258,0.911407995748231
1135.63490757293,0.909074709169187
1139.26867193685,0.911795146146418
1142.89813372434,0.907885861172849
1147.73072321099,0.906057219372816
1151.35014565348,0.908358649198038
1154.96526551954,0.909876943863314
1158.57608280917,0.911737642784966
1162.18259752237,0.911935464092354
1165.78480965914,0.910485741435564
1169.38271921947,0.91354713619312
1172.97632620338,0.912830508517542
1176.56563061086,0.913498832280181
1181.34467692417,0.914406258751389
1184.92394198664,0.913849219083976
1188.49890447269,0.911655183499727
1192.06956438231,0.913946080121871
1195.63592171549,0.915469377791132
1199.19797647225,0.913963932216916
1202.75572865258,0.913059204478661
1206.30917825648,0.913992343994462
1209.85832528395,0.913223640477108
1214.5838284239,0.913788898816414
1218.12293610637,0.91327475070328
1221.6577412124,0.914823508393027
1225.18824374201,0.912750520641078
1228.71444369518,0.913749299339225
1232.23634107193,0.912798365632564
1235.75393587224,0.911000280325882
1239.26722809613,0.914367015120105
1242.77621774359,0.912761515662608
1247.44817771019,0.913281021675182
1250.94712801265,0.91453931655151
1254.44177573867,0.913922338413358
1257.93212088826,0.913704684492266
1261.41816346143,0.914294612703393
1264.89990345816,0.913281968501412
1268.37734087847,0.914358896309686
1271.85047572234,0.91388312874921
1275.31930798978,0.913985209218202
1279.93772478304,0.912918162813988
1283.39651770548,0.915051388636985
1286.8510080515,0.912555138386914
1290.30119582108,0.911320656917391
1293.74708101423,0.910634230736048
1297.18866363095,0.911803109432831
1300.62594367125,0.910558730061326
1304.05892113511,0.910111123792359
1307.48759602254,0.911139111718611
1312.05246964245,0.911118223793251
1315.47110518488,0.912527730253687
1318.88543815088,0.911672641094849
1322.29546854045,0.91189473334198
1325.70119635359,0.911823782585055
1329.10262159031,0.911906305500371
1332.49974425059,0.908179178921765
1335.89256433444,0.912894896362462
1339.28108184186,0.911524493596599
1343.79241228842,0.91205856293837
1347.17089045084,0.91239781534071
1350.54506603683,0.914662794524276
1353.91493904639,0.914683630699401
1357.28050947952,0.914126334491684
1360.64177733622,0.913606067376437
1363.99874261649,0.916285835618164
1367.35140532033,0.913514796123023
1370.69976544774,0.914479891776738
1375.15755272095,0.91585926538309
1378.49587350336,0.916477425651488
1381.82989170933,0.917729775592889
1385.15960733888,0.917508893016555
1388.485020392,0.9186915008457
1391.80613086869,0.92017062423111
1395.12293876895,0.918479241029846
1398.43544409277,0.922082736596948
1401.74364684017,0.922784196526304
1406.14789094004,0.925509883808641
1409.44605434243,0.92346508945384
1412.7399151684,0.926038189367098
1416.02947341793,0.926703969951456
1419.31472909104,0.928856911881189
1422.59568218772,0.930170778505682
1425.87233270796,0.932569521451981
1429.14468065178,0.929750317284986
1432.41272601917,0.932019718495904
1436.76342694568,0.930933231811508
1440.02143296807,0.932174629268596
1443.27513641402,0.932664440203945
1446.52453728354,0.934744595221171
1449.76963557664,0.934135745575764
1453.0104312933,0.93452932531114
1456.24692443354,0.934181334621478
1459.47911499734,0.935592119125618
1462.70700298472,0.937419199823106
1467.00416073789,0.93573137258531
1470.22200938026,0.934756411207442
1473.4355554462,0.937214615236263
1476.64479893571,0.939130227785263
1479.8497398488,0.938241742867348
1483.05037818545,0.940193924848062
1486.24671394567,0.942318520827314
1489.43874712947,0.94373239280594
1492.62647773683,0.941770438959138
1496.87009231665,0.944213900659217
1500.04778357901,0.945396706181462
1503.22117226494,0.944320833325153
1506.39025837444,0.943958265413827
1509.55504190751,0.947010008594128
1512.71552286416,0.946183188379636
1515.87170124437,0.944400326915738
1519.02357704815,0.945575493477012
1522.1711502755,0.944181579227821
1526.36122168197,0.943648138628083
1529.49875556432,0.942600055730172
1532.63198687024,0.943098039794659
1535.76091559973,0.942618428488557
1538.88554175279,0.944798500385412
1542.00586532942,0.940711077362202
1545.12188632962,0.942718880237526
1548.23360475339,0.939500899691876
1551.34102060073,0.939367573761963
1555.47754883385,0.940077994587882
1558.57492533619,0.939159645682434
1561.6679992621,0.93736478373349
1564.75677061158,0.939651302991666
1567.84123938463,0.94099472376607
1570.92140558125,0.939206393569142
1573.99726920143,0.940209439242879
1577.06883024519,0.939949798004053
1580.13608871252,0.941110260726034
1584.21907377229,0.94294077097057
1587.27629289462,0.940412941316346
1590.32920944052,0.940833896472904
1593.37782340998,0.939984370660421
1596.42213480302,0.94058934200558
1599.46214361963,0.937834136237587
1602.49784985981,0.940711527281023
1605.52925352355,0.944850563107146
1608.55635461087,0.937807205423622
1612.58579649729,0.944443774766462
1615.60285823961,0.940859429573287
1618.61561740549,0.941815127711751
1621.62407399495,0.94193955388361
1624.62822800797,0.943121037814818
1627.62807944457,0.940941982812302
1630.62362830474,0.944795746155427
1633.61487458847,0.944914076605638
1636.60181829578,0.948478235052155
1640.57771700885,0.947479669138029
1643.55462137116,0.948535549671358
1646.52722315703,0.949752473370759
1649.49552236647,0.955226788263598
1652.45951899949,0.950705446745102
1655.41921305607,0.949329308669949
1658.37460453623,0.953562513885176
1661.32569343995,0.948412965778601
1664.27247976724,0.946928195662286
1668.19483530697,0.938284229940971
1671.13158228926,0.939279441786227
1674.06402669512,0.919836997657444
1676.99216852456,0.90042733405131
1679.91600777756,0.882850824777471
1682.83554445413,0.848080742479288
1685.75077855427,0.814804654195736
1688.66171007799,0.785647340433879
1691.56833902527,0.758023796541709
1695.43715139165,0.737260270887733
1698.33374099393,0.724152741173398
1701.22602801978,0.745005525500568
##END=
