##TITLE=Column 1
##JCAMP-DX=4.24
##DATA TYPE=INFRARED SPECTRUM
##Method:,Column 1,Built-In Reference,,,Model Name,NIR-S-G1
##Host Date-Time:,27/10/20 @ 13:12:22,13/5/20 @ 16:0:36,,,GUI Version,3.6.4
##Header Version:,1,1,,,Tiva Version,2.4.4.0
##System Temp (C):,48.29,34.7,,,DLPC Version,2.2.0
##Detector Temp (C),0,0,,,UUID,DE:67:0C:88:67:4B:68:21
##Humidity (%):,29.91,35.27,,,Main Board Version,D
##Lamp PD:,1920,1767
##Shift Vector Coefficients:,-7.40266672958336,0.0577935962102471,-0.000112288131265282
##Pixel to Wavelength Coefficients:,1779.07784909224,-0.923938295271985,-0.000239032023878199
##Serial Number:,947R033,947R033
##Scan Config Name:,Column 1,SystemTest
##Scan Config Type:,Column,Column
##Start wavelength (nm):,900,900
##End wavelength (nm):,1700,1700
##Pattern Pixel Width (nm):,7.03,7.03
##Exposure (ms):,0.635,0.635
##Digital Resolution:,228,228
##NPOINTS=228
##Num Repeats:,6,30
##PGA Gain:,64,64
##Total Measurement Time in sec:,2.0879019
##XUNITS=Wavelength(nm)
##YUNITS=Reflectance(unitless)
##FIRSTX=901.938585242429
##LASTX=1701.22602801978
##PEAK TABLE=X+(Y..Y)
901.938585242429,0.140938395415473
905.839109344998,0.140387375152899
909.735330871137,0.137934696984449
913.627249820846,0.140030159101356
917.514866194126,0.134926395865393
921.398179990975,0.133392157873042
925.277191211395,0.131083917468615
929.151899855385,0.132342843495308
933.022305922945,0.133032528762767
938.17615444969,0.133955300714365
942.036521172247,0.133654721295221
945.892585318375,0.13389490180714
949.744346888073,0.13565574043372
953.59180588134,0.136900917296917
957.434962298178,0.136691808048895
961.273816138587,0.13590715771271
965.108367402565,0.134437758323846
968.938616090114,0.134990172056329
974.03892144351,0.13516434659962
977.859130786056,0.134263896305885
981.675037552172,0.133790046342938
985.486641741858,0.133880905367851
989.293943355114,0.134166191190195
993.096942391941,0.134177993673649
996.895638852337,0.132667605675318
1000.6900327363,0.133325069724202
1004.48012404384,0.133131351308514
1009.52688622389,0.133768105254136
1013.30693818642,0.132761596272033
1017.08268757253,0.133582729782255
1020.8541343822,0.134289921894878
1024.62127861545,0.133701564278787
1028.38412027226,0.133711505746095
1032.14265935265,0.134182564344872
1035.8968958566,0.13368627652547
1039.64682978413,0.133474483574639
1044.64004879083,0.13356854550956
1048.37994337335,0.134040617099692
1052.11553537944,0.13345966793319
1055.84682480911,0.133616136998703
1059.57381166234,0.134164287493533
1063.29649593914,0.133745539925949
1067.01487763952,0.133439101217166
1070.72895676346,0.134568936533638
1074.43873331097,0.134221537532563
1079.37840914432,0.135179667706336
1083.07814634683,0.134030027748926
1086.77358097292,0.135145391217476
1090.46471302257,0.133999508876003
1094.15154249579,0.133692652771783
1097.83406939258,0.134304785400551
1101.51229371294,0.134936415742486
1105.18621545688,0.135550003618069
1108.85583462438,0.134695640478216
1113.74196728438,0.135214026065807
1117.40154710688,0.135254930955422
1121.05682435295,0.134851742670617
1124.70779902259,0.134336840827452
1128.3544711158,0.134939851436335
1131.99684063258,0.134834067808593
1135.63490757293,0.135392291407738
1139.26867193685,0.135489983032976
1142.89813372434,0.135746574274823
1147.73072321099,0.135470355176887
1151.35014565348,0.136105873266583
1154.96526551954,0.135074286976144
1158.57608280917,0.134653719687628
1162.18259752237,0.135542859862553
1165.78480965914,0.135394829968656
1169.38271921947,0.135724790267054
1172.97632620338,0.134233330292803
1176.56563061086,0.134771856329792
1181.34467692417,0.134767774329932
1184.92394198664,0.13510068701811
1188.49890447269,0.135141162303198
1192.06956438231,0.135049456326695
1195.63592171549,0.134903520318145
1199.19797647225,0.135852626721021
1202.75572865258,0.135523973014109
1206.30917825648,0.136068112152564
1209.85832528395,0.136272450006895
1214.5838284239,0.136387235271299
1218.12293610637,0.135858817903844
1221.6577412124,0.135501478345334
1225.18824374201,0.136001068030748
1228.71444369518,0.135975782565448
1232.23634107193,0.136176279511202
1235.75393587224,0.135469730753164
1239.26722809613,0.135236553404434
1242.77621774359,0.13559184939926
1247.44817771019,0.135509162922214
1250.94712801265,0.135400597452315
1254.44177573867,0.135471900562103
1257.93212088826,0.135346632172645
1261.41816346143,0.134907990667652
1264.89990345816,0.135003859613644
1268.37734087847,0.135143793015331
1271.85047572234,0.135450653764296
1275.31930798978,0.135394816807168
1279.93772478304,0.134985910657836
1283.39651770548,0.134995523597038
1286.8510080515,0.135776618421208
1290.30119582108,0.13477662135704
1293.74708101423,0.13555299770026
1297.18866363095,0.135206332532143
1300.62594367125,0.135245693554641
1304.05892113511,0.135122372681169
1307.48759602254,0.135418143566055
1312.05246964245,0.135476752738957
1315.47110518488,0.134927986052945
1318.88543815088,0.135915215766256
1322.29546854045,0.135481609227899
1325.70119635359,0.135445628603133
1329.10262159031,0.135319640133603
1332.49974425059,0.13547423871095
1335.89256433444,0.135684280966547
1339.28108184186,0.135093697911285
1343.79241228842,0.134999809147879
1347.17089045084,0.134577718781147
1350.54506603683,0.1343681589363
1353.91493904639,0.133967004052902
1357.28050947952,0.133836146810443
1360.64177733622,0.133834079204804
1363.99874261649,0.134017360478482
1367.35140532033,0.13409553827961
1370.69976544774,0.133751604484238
1375.15755272095,0.133375543873801
1378.49587350336,0.132965560025992
1381.82989170933,0.132622001560071
1385.15960733888,0.132902653065193
1388.485020392,0.132634956825514
1391.80613086869,0.132486985154798
1395.12293876895,0.131168290717606
1398.43544409277,0.130873580456311
1401.74364684017,0.130965124958771
1406.14789094004,0.129846390810357
1409.44605434243,0.13001122840624
1412.7399151684,0.128908569685312
1416.02947341793,0.128728268041285
1419.31472909104,0.128666708702018
1422.59568218772,0.128382983748116
1425.87233270796,0.127938054816385
1429.14468065178,0.128038186313995
1432.41272601917,0.127232916897066
1436.76342694568,0.12739227992433
1440.02143296807,0.127432909347491
1443.27513641402,0.127795407088314
1446.52453728354,0.126984593465448
1449.76963557664,0.127202492623005
1453.0104312933,0.127151227737878
1456.24692443354,0.12641929327861
1459.47911499734,0.126697653676871
1462.70700298472,0.126808570418318
1467.00416073789,0.126884107992482
1470.22200938026,0.126126288495667
1473.4355554462,0.125992731838652
1476.64479893571,0.125739574980195
1479.8497398488,0.12605004114223
1483.05037818545,0.125821555961414
1486.24671394567,0.125449336985166
1489.43874712947,0.124670587359488
1492.62647773683,0.124560335962675
1496.87009231665,0.124292524494507
1500.04778357901,0.124217052687749
1503.22117226494,0.123840702501303
1506.39025837444,0.124290706413796
1509.55504190751,0.123983270970912
1512.71552286416,0.123986970066939
1515.87170124437,0.124011483874571
1519.02357704815,0.124397477187332
1522.1711502755,0.125023063481555
1526.36122168197,0.125469356496059
1529.49875556432,0.1248465338601
1532.63198687024,0.125846890397606
1535.76091559973,0.125827682204297
1538.88554175279,0.125939806106208
1542.00586532942,0.125754775107825
1545.12188632962,0.126280655409988
1548.23360475339,0.127543905192555
1551.34102060073,0.126865500140185
1555.47754883385,0.12784451102116
1558.57492533619,0.127791786313705
1561.6679992621,0.127376164310396
1564.75677061158,0.127458754906794
1567.84123938463,0.126943026946556
1570.92140558125,0.127775482672143
1573.99726920143,0.127875734676742
1577.06883024519,0.127962839462688
1580.13608871252,0.127771737640814
1584.21907377229,0.127849039007532
1587.27629289462,0.12781733960177
1590.32920944052,0.128656142004398
1593.37782340998,0.12827532735698
1596.42213480302,0.127433624683731
1599.46214361963,0.128237527673648
1602.49784985981,0.12804446080933
1605.52925352355,0.128623967771755
1608.55635461087,0.128046862091366
1612.58579649729,0.128966983908143
1615.60285823961,0.129590413344994
1618.61561740549,0.128554914439469
1621.62407399495,0.128151570506134
1624.62822800797,0.129325103268467
1627.62807944457,0.12871591386951
1630.62362830474,0.129018120896586
1633.61487458847,0.128902175186696
1636.60181829578,0.128642091626428
1640.57771700885,0.129162409526176
1643.55462137116,0.128747047013446
1646.52722315703,0.128552234561081
1649.49552236647,0.126851601567779
1652.45951899949,0.12941295702194
1655.41921305607,0.126457467302038
1658.37460453623,0.128225073087878
1661.32569343995,0.129108256823287
1664.27247976724,0.128443139448934
1668.19483530697,0.130450783580945
1671.13158228926,0.132259008580042
1674.06402669512,0.138742157888676
1676.99216852456,0.142089397889919
1679.91600777756,0.151135221023623
1682.83554445413,0.159927605969635
1685.75077855427,0.179030679401937
1688.66171007799,0.18907370060502
1691.56833902527,0.193850902184236
1695.43715139165,0.208341474411964
1698.33374099393,0.203998287976602
1701.22602801978,0.214106378040804
##END=
