##TITLE=Column 1
##JCAMP-DX=4.24
##DATA TYPE=INFRARED SPECTRUM
##Method:,Column 1,Built-In Reference,,,Model Name,NIR-S-G1
##Host Date-Time:,27/10/20 @ 13:12:43,13/5/20 @ 16:0:36,,,GUI Version,3.6.4
##Header Version:,1,1,,,Tiva Version,2.4.4.0
##System Temp (C):,48.44,34.7,,,DLPC Version,2.2.0
##Detector Temp (C),0,0,,,UUID,DE:67:0C:88:67:4B:68:21
##Humidity (%):,29.71,35.27,,,Main Board Version,D
##Lamp PD:,1921,1767
##Shift Vector Coefficients:,-7.40266672958336,0.0577935962102471,-0.000112288131265282
##Pixel to Wavelength Coefficients:,1779.07784909224,-0.923938295271985,-0.000239032023878199
##Serial Number:,947R033,947R033
##Scan Config Name:,Column 1,SystemTest
##Scan Config Type:,Column,Column
##Start wavelength (nm):,900,900
##End wavelength (nm):,1700,1700
##Pattern Pixel Width (nm):,7.03,7.03
##Exposure (ms):,0.635,0.635
##Digital Resolution:,228,228
##NPOINTS=228
##Num Repeats:,6,30
##PGA Gain:,64,64
##Total Measurement Time in sec:,2.0933465
##XUNITS=Wavelength(nm)
##YUNITS=Absorbance(AU)
##FIRSTX=901.938585242429
##LASTX=1701.22602801978
##PEAK TABLE=X+(Y..Y)
901.938585242429,0.815667061277359
905.839109344998,0.819112478107722
909.735330871137,0.823579566456954
913.627249820846,0.821402630403445
917.514866194126,0.825838118016233
921.398179990975,0.837462249805802
925.277191211395,0.839900736618562
929.151899855385,0.846782486970441
933.022305922945,0.845351522867378
938.17615444969,0.841728378074463
942.036521172247,0.833755646093009
945.892585318375,0.830932392364868
949.744346888073,0.82914223176342
953.59180588134,0.82668073612236
957.434962298178,0.824396349220501
961.273816138587,0.824709536776802
965.108367402565,0.82616261401534
968.938616090114,0.828292563884898
974.03892144351,0.831793534642321
977.859130786056,0.827237150168523
981.675037552172,0.826664481537668
985.486641741858,0.826272060984449
989.293943355114,0.831131508531234
993.096942391941,0.829062196433898
996.895638852337,0.833008991788556
1000.6900327363,0.82935895474925
1004.48012404384,0.829262738903765
1009.52688622389,0.831305129933861
1013.30693818642,0.828841443535148
1017.08268757253,0.830836098293038
1020.8541343822,0.829696565717192
1024.62127861545,0.828046261527457
1028.38412027226,0.826637368996915
1032.14265935265,0.827348190465648
1035.8968958566,0.824248120649284
1039.64682978413,0.82544894505642
1044.64004879083,0.822640314929024
1048.37994337335,0.821207585639146
1052.11553537944,0.820587263347737
1055.84682480911,0.819304941804972
1059.57381166234,0.819710065874797
1063.29649593914,0.820454783000489
1067.01487763952,0.820943476037835
1070.72895676346,0.818444516572859
1074.43873331097,0.814780374367031
1079.37840914432,0.813003446044454
1083.07814634683,0.812827104832711
1086.77358097292,0.813640868650468
1090.46471302257,0.812985999710921
1094.15154249579,0.809114262074426
1097.83406939258,0.81090822761972
1101.51229371294,0.809078466243851
1105.18621545688,0.809209743582218
1108.85583462438,0.804981615325447
1113.74196728438,0.802672721805783
1117.40154710688,0.80407231435973
1121.05682435295,0.802745365655224
1124.70779902259,0.803326677471472
1128.3544711158,0.803808027469497
1131.99684063258,0.803176840885409
1135.63490757293,0.802542804337222
1139.26867193685,0.800861810660677
1142.89813372434,0.802943883295353
1147.73072321099,0.803852806700375
1151.35014565348,0.801058074617377
1154.96526551954,0.803404671772113
1158.57608280917,0.806930328699319
1162.18259752237,0.804845114429696
1165.78480965914,0.806423016208221
1169.38271921947,0.806314119536785
1172.97632620338,0.804621383961911
1176.56563061086,0.803560057454271
1181.34467692417,0.803647535681596
1184.92394198664,0.80348563244666
1188.49890447269,0.803777558082573
1192.06956438231,0.804498304797602
1195.63592171549,0.806556100207426
1199.19797647225,0.803321674038086
1202.75572865258,0.80146817118976
1206.30917825648,0.80144280097375
1209.85832528395,0.799508712284687
1214.5838284239,0.80014565924573
1218.12293610637,0.798918225523262
1221.6577412124,0.799411645685496
1225.18824374201,0.80039841517314
1228.71444369518,0.799423698260134
1232.23634107193,0.800299228175538
1235.75393587224,0.800221970529526
1239.26722809613,0.799213394857825
1242.77621774359,0.797981550404358
1247.44817771019,0.796793479797148
1250.94712801265,0.796706071308728
1254.44177573867,0.797151169878524
1257.93212088826,0.797697949287265
1261.41816346143,0.799355588829123
1264.89990345816,0.797536352961174
1268.37734087847,0.799774807686085
1271.85047572234,0.79785471845906
1275.31930798978,0.799026605568414
1279.93772478304,0.798320323341995
1283.39651770548,0.797985668406221
1286.8510080515,0.795713186161422
1290.30119582108,0.796049017899888
1293.74708101423,0.797950779415233
1297.18866363095,0.797000978298129
1300.62594367125,0.797229811417603
1304.05892113511,0.797519870707513
1307.48759602254,0.797761138599278
1312.05246964245,0.799547447068454
1315.47110518488,0.797282298917319
1318.88543815088,0.795598815234419
1322.29546854045,0.796721893898263
1325.70119635359,0.796277793233938
1329.10262159031,0.795510310145284
1332.49974425059,0.795210722275546
1335.89256433444,0.795035836166045
1339.28108184186,0.79617060093412
1343.79241228842,0.797011176907437
1347.17089045084,0.797637881207284
1350.54506603683,0.798807532321216
1353.91493904639,0.799607702766896
1357.28050947952,0.799457203326934
1360.64177733622,0.798996361952835
1363.99874261649,0.799449143243611
1367.35140532033,0.798490233351701
1370.69976544774,0.798517984603707
1375.15755272095,0.797793162844035
1378.49587350336,0.798358991141346
1381.82989170933,0.799481617366345
1385.15960733888,0.79904756494822
1388.485020392,0.801098560365926
1391.80613086869,0.803661144800753
1395.12293876895,0.803184593435077
1398.43544409277,0.804131027594335
1401.74364684017,0.803861419274321
1406.14789094004,0.804940195811001
1409.44605434243,0.806020686134043
1412.7399151684,0.806388165309581
1416.02947341793,0.805009243101049
1419.31472909104,0.804932063045422
1422.59568218772,0.806586254971282
1425.87233270796,0.805274480410146
1429.14468065178,0.805495509135989
1432.41272601917,0.804820190288201
1436.76342694568,0.808292674958592
1440.02143296807,0.807733396341625
1443.27513641402,0.808443722002375
1446.52453728354,0.809066263963496
1449.76963557664,0.809227793931486
1453.0104312933,0.809722931000885
1456.24692443354,0.809625822601056
1459.47911499734,0.807398211800659
1462.70700298472,0.810080947593236
1467.00416073789,0.807659420533166
1470.22200938026,0.806724782391252
1473.4355554462,0.807107786434932
1476.64479893571,0.808372114497872
1479.8497398488,0.807655635552119
1483.05037818545,0.806877039601036
1486.24671394567,0.809323382889076
1489.43874712947,0.809136392562476
1492.62647773683,0.810953946497462
1496.87009231665,0.812700132220539
1500.04778357901,0.813594501682742
1503.22117226494,0.813281750876051
1506.39025837444,0.812718788172151
1509.55504190751,0.814053383978674
1512.71552286416,0.812348641065786
1515.87170124437,0.810771461943942
1519.02357704815,0.81055278545263
1522.1711502755,0.808836165575903
1526.36122168197,0.80580326718175
1529.49875556432,0.804809627603395
1532.63198687024,0.805640348903906
1535.76091559973,0.803223132747334
1538.88554175279,0.803943073321223
1542.00586532942,0.804265216665134
1545.12188632962,0.804322519904696
1548.23360475339,0.800510311874838
1551.34102060073,0.802535087827221
1555.47754883385,0.801429814887145
1558.57492533619,0.802676180020602
1561.6679992621,0.802644304290291
1564.75677061158,0.801896152806108
1567.84123938463,0.802435552416118
1570.92140558125,0.803762005330401
1573.99726920143,0.801652858106809
1577.06883024519,0.803554529768939
1580.13608871252,0.8013723967734
1584.21907377229,0.802775154308258
1587.27629289462,0.803588148383031
1590.32920944052,0.802479110798343
1593.37782340998,0.80266146986516
1596.42213480302,0.802720347939559
1599.46214361963,0.80604942211528
1602.49784985981,0.805874285848137
1605.52925352355,0.811355340141915
1608.55635461087,0.809174452864967
1612.58579649729,0.81308344633308
1615.60285823961,0.813063003121099
1618.61561740549,0.813824325622603
1621.62407399495,0.812722801142349
1624.62822800797,0.817021997407379
1627.62807944457,0.821688547212444
1630.62362830474,0.819096527982784
1633.61487458847,0.823901707577348
1636.60181829578,0.824693713502524
1640.57771700885,0.821123425862791
1643.55462137116,0.829707954758708
1646.52722315703,0.833438126599091
1649.49552236647,0.834674918701191
1652.45951899949,0.834156045406906
1655.41921305607,0.849101394033585
1658.37460453623,0.842579081998629
1661.32569343995,0.838874586030988
1664.27247976724,0.830240781520916
1668.19483530697,0.827731629586292
1671.13158228926,0.815148401139994
1674.06402669512,0.803318666573329
1676.99216852456,0.786034186823451
1679.91600777756,0.765014266330005
1682.83554445413,0.728383726222956
1685.75077855427,0.693764840860998
1688.66171007799,0.664283282931531
1691.56833902527,0.639421329362948
1695.43715139165,0.610489703244575
1698.33374099393,0.599573226763948
1701.22602801978,0.59519651482291
##END=
