##TITLE=Column 1
##JCAMP-DX=4.24
##DATA TYPE=INFRARED SPECTRUM
##Method:,Column 1,Built-In Reference,,,Model Name,NIR-S-G1
##Host Date-Time:,27/10/20 @ 13:11:30,13/5/20 @ 16:0:36,,,GUI Version,3.6.4
##Header Version:,1,1,,,Tiva Version,2.4.4.0
##System Temp (C):,47.81,34.7,,,DLPC Version,2.2.0
##Detector Temp (C),0,0,,,UUID,DE:67:0C:88:67:4B:68:21
##Humidity (%):,30.4,35.27,,,Main Board Version,D
##Lamp PD:,1919,1767
##Shift Vector Coefficients:,-7.40266672958336,0.0577935962102471,-0.000112288131265282
##Pixel to Wavelength Coefficients:,1779.07784909224,-0.923938295271985,-0.000239032023878199
##Serial Number:,947R033,947R033
##Scan Config Name:,Column 1,SystemTest
##Scan Config Type:,Column,Column
##Start wavelength (nm):,900,900
##End wavelength (nm):,1700,1700
##Pattern Pixel Width (nm):,7.03,7.03
##Exposure (ms):,0.635,0.635
##Digital Resolution:,228,228
##NPOINTS=228
##Num Repeats:,6,30
##PGA Gain:,64,64
##Total Measurement Time in sec:,2.1093365
##XUNITS=Wavelength(nm)
##YUNITS=Absorbance(AU)
##FIRSTX=901.938585242429
##LASTX=1701.22602801978
##PEAK TABLE=X+(Y..Y)
901.938585242429,0.810845816254623
905.839109344998,0.801042962163803
909.735330871137,0.804027318484995
913.627249820846,0.816119093176072
917.514866194126,0.820008855821264
921.398179990975,0.828324481690563
925.277191211395,0.829871714337505
929.151899855385,0.835984554130394
933.022305922945,0.835042251500718
938.17615444969,0.831995352126335
942.036521172247,0.826518504995241
945.892585318375,0.825968621925854
949.744346888073,0.818351033469489
953.59180588134,0.81977337727088
957.434962298178,0.819265635914826
961.273816138587,0.814849730993685
965.108367402565,0.814630783074826
968.938616090114,0.816791313226831
974.03892144351,0.814781637162543
977.859130786056,0.814069702988081
981.675037552172,0.812757931833634
985.486641741858,0.81346306356662
989.293943355114,0.813543388567844
993.096942391941,0.814113659449011
996.895638852337,0.81306882632116
1000.6900327363,0.813994943135038
1004.48012404384,0.81259930316278
1009.52688622389,0.812871376442048
1013.30693818642,0.811478647027655
1017.08268757253,0.809572134306401
1020.8541343822,0.812432271805236
1024.62127861545,0.809834641007715
1028.38412027226,0.810695511750987
1032.14265935265,0.810921326209566
1035.8968958566,0.811651901346033
1039.64682978413,0.809383531314377
1044.64004879083,0.809465011816429
1048.37994337335,0.811136977133755
1052.11553537944,0.809912032024468
1055.84682480911,0.810530142037014
1059.57381166234,0.810092372063803
1063.29649593914,0.810184923120895
1067.01487763952,0.810217582592529
1070.72895676346,0.810273840261175
1074.43873331097,0.808023947293827
1079.37840914432,0.810454912716225
1083.07814634683,0.810928021856104
1086.77358097292,0.809841738604573
1090.46471302257,0.809073067618952
1094.15154249579,0.809864446280798
1097.83406939258,0.810546650573969
1101.51229371294,0.809233784693562
1105.18621545688,0.81015415817521
1108.85583462438,0.811392763163505
1113.74196728438,0.812473194174729
1117.40154710688,0.808494818735073
1121.05682435295,0.813183349314671
1124.70779902259,0.812353369286571
1128.3544711158,0.810676457244154
1131.99684063258,0.811686152167017
1135.63490757293,0.811873346616631
1139.26867193685,0.81157379712901
1142.89813372434,0.810724531132462
1147.73072321099,0.81012093230841
1151.35014565348,0.811420496938264
1154.96526551954,0.811619842914269
1158.57608280917,0.810079241890646
1162.18259752237,0.812341982702996
1165.78480965914,0.813595977116729
1169.38271921947,0.81514323580995
1172.97632620338,0.814544936385297
1176.56563061086,0.813412785118627
1181.34467692417,0.816165065005256
1184.92394198664,0.815556655485614
1188.49890447269,0.814362641020678
1192.06956438231,0.814336198907916
1195.63592171549,0.814444162844597
1199.19797647225,0.813977262172863
1202.75572865258,0.814151618420086
1206.30917825648,0.811488578622335
1209.85832528395,0.811415263193468
1214.5838284239,0.811752382178824
1218.12293610637,0.811483616542462
1221.6577412124,0.811006876684237
1225.18824374201,0.813006134524247
1228.71444369518,0.809710576915075
1232.23634107193,0.80998015245743
1235.75393587224,0.80945926874952
1239.26722809613,0.810536466453773
1242.77621774359,0.811980585005655
1247.44817771019,0.809625910834677
1250.94712801265,0.80841699029098
1254.44177573867,0.808945177078133
1257.93212088826,0.808737173894569
1261.41816346143,0.809755023603354
1264.89990345816,0.808671322779209
1268.37734087847,0.809705764793844
1271.85047572234,0.809768630145965
1275.31930798978,0.807089806019564
1279.93772478304,0.808479144277131
1283.39651770548,0.808010229076912
1286.8510080515,0.807759155719397
1290.30119582108,0.806745856588236
1293.74708101423,0.806761407041393
1297.18866363095,0.807010515846734
1300.62594367125,0.80839706711731
1304.05892113511,0.807516686151433
1307.48759602254,0.806638256390443
1312.05246964245,0.806712577634077
1315.47110518488,0.806237528421485
1318.88543815088,0.807034348925935
1322.29546854045,0.806139015626075
1325.70119635359,0.806791551632024
1329.10262159031,0.806554455016656
1332.49974425059,0.80638349741993
1335.89256433444,0.807830224619768
1339.28108184186,0.809330873606633
1343.79241228842,0.808079579450737
1347.17089045084,0.80932513950066
1350.54506603683,0.809886021368474
1353.91493904639,0.811779444380107
1357.28050947952,0.810771653644046
1360.64177733622,0.812423346387003
1363.99874261649,0.812334940583385
1367.35140532033,0.812600543283488
1370.69976544774,0.812859420615023
1375.15755272095,0.813056495519853
1378.49587350336,0.814201677698339
1381.82989170933,0.815849498270374
1385.15960733888,0.8150505283668
1388.485020392,0.815783576270289
1391.80613086869,0.817453836326479
1395.12293876895,0.817751847407389
1398.43544409277,0.820105389193934
1401.74364684017,0.821698717956416
1406.14789094004,0.824181502702521
1409.44605434243,0.825684913456389
1412.7399151684,0.826287598023803
1416.02947341793,0.828539351006644
1419.31472909104,0.827143569293252
1422.59568218772,0.83002091366317
1425.87233270796,0.829539772090895
1429.14468065178,0.831542075088048
1432.41272601917,0.831003892908328
1436.76342694568,0.831526369773515
1440.02143296807,0.831108797721154
1443.27513641402,0.832316567083563
1446.52453728354,0.833749016963678
1449.76963557664,0.833584792783453
1453.0104312933,0.834622435127814
1456.24692443354,0.83505680051579
1459.47911499734,0.835794476823832
1462.70700298472,0.836927519971987
1467.00416073789,0.834784867015275
1470.22200938026,0.835891231481449
1473.4355554462,0.835680976189901
1476.64479893571,0.838774439625929
1479.8497398488,0.837421957729131
1483.05037818545,0.839537358814386
1486.24671394567,0.84057530534645
1489.43874712947,0.840035619867662
1492.62647773683,0.842758492985792
1496.87009231665,0.843690888449869
1500.04778357901,0.844570865756695
1503.22117226494,0.845207635249267
1506.39025837444,0.846317337302522
1509.55504190751,0.84436849813514
1512.71552286416,0.843804676688043
1515.87170124437,0.844876332463672
1519.02357704815,0.844214265904644
1522.1711502755,0.843683328820099
1526.36122168197,0.842756997872305
1529.49875556432,0.840061092868731
1532.63198687024,0.842318931781711
1535.76091559973,0.838658723677985
1538.88554175279,0.839276054102652
1542.00586532942,0.836846046403241
1545.12188632962,0.837041102689234
1548.23360475339,0.836066419873243
1551.34102060073,0.837648885045939
1555.47754883385,0.834860283658163
1558.57492533619,0.836079934525493
1561.6679992621,0.833796717875319
1564.75677061158,0.83525657054852
1567.84123938463,0.833038876694622
1570.92140558125,0.834031621249418
1573.99726920143,0.835638194640215
1577.06883024519,0.835095642508816
1580.13608871252,0.833882534801882
1584.21907377229,0.833285029571004
1587.27629289462,0.832935155834114
1590.32920944052,0.831704310340569
1593.37782340998,0.832434072531172
1596.42213480302,0.829921188151111
1599.46214361963,0.830044918724946
1602.49784985981,0.831026233063525
1605.52925352355,0.829165822189408
1608.55635461087,0.827779612066187
1612.58579649729,0.827072559850139
1615.60285823961,0.828061763040895
1618.61561740549,0.827690998638468
1621.62407399495,0.82698166617588
1624.62822800797,0.829738837669933
1627.62807944457,0.823143002444537
1630.62362830474,0.822797493273303
1633.61487458847,0.821015252169987
1636.60181829578,0.824796205907477
1640.57771700885,0.819010195091917
1643.55462137116,0.820495859353445
1646.52722315703,0.822631442922758
1649.49552236647,0.818967333111369
1652.45951899949,0.822463227785111
1655.41921305607,0.814498277011312
1658.37460453623,0.816665899220432
1661.32569343995,0.814574524833475
1664.27247976724,0.81430428254872
1668.19483530697,0.8079932590186
1671.13158228926,0.792885846919078
1674.06402669512,0.7816247078188
1676.99216852456,0.7645072219478
1679.91600777756,0.738165971710605
1682.83554445413,0.699681737495184
1685.75077855427,0.668311095320597
1688.66171007799,0.641000279520075
1691.56833902527,0.622560039412804
1695.43715139165,0.5926778868033
1698.33374099393,0.598926840584171
1701.22602801978,0.588608574427874
##END=
