##TITLE=Column 1
##JCAMP-DX=4.24
##DATA TYPE=INFRARED SPECTRUM
##Method:,Column 1,Built-In Reference,,,Model Name,NIR-S-G1
##Host Date-Time:,27/10/20 @ 13:11:57,13/5/20 @ 16:0:36,,,GUI Version,3.6.4
##Header Version:,1,1,,,Tiva Version,2.4.4.0
##System Temp (C):,48.09,34.7,,,DLPC Version,2.2.0
##Detector Temp (C),0,0,,,UUID,DE:67:0C:88:67:4B:68:21
##Humidity (%):,30.2,35.27,,,Main Board Version,D
##Lamp PD:,1920,1767
##Shift Vector Coefficients:,-7.40266672958336,0.0577935962102471,-0.000112288131265282
##Pixel to Wavelength Coefficients:,1779.07784909224,-0.923938295271985,-0.000239032023878199
##Serial Number:,947R033,947R033
##Scan Config Name:,Column 1,SystemTest
##Scan Config Type:,Column,Column
##Start wavelength (nm):,900,900
##End wavelength (nm):,1700,1700
##Pattern Pixel Width (nm):,7.03,7.03
##Exposure (ms):,0.635,0.635
##Digital Resolution:,228,228
##NPOINTS=228
##Num Repeats:,6,30
##PGA Gain:,64,64
##Total Measurement Time in sec:,2.069538
##XUNITS=Wavelength(nm)
##YUNITS=Intensity
##FIRSTX=901.938585242429
##LASTX=1701.22602801978
##PEAK TABLE=X+(Y..Y)
901.938585242429,13448
905.839109344998,14438
909.735330871137,16282
913.627249820846,17437
917.514866194126,18849
921.398179990975,21148
925.277191211395,24170
929.151899855385,26516
933.022305922945,29960
938.17615444969,33895
942.036521172247,36596
945.892585318375,39361
949.744346888073,41471
953.59180588134,43310
957.434962298178,45707
961.273816138587,47370
965.108367402565,49568
968.938616090114,51250
974.03892144351,54501
977.859130786056,56281
981.675037552172,58783
985.486641741858,60755
989.293943355114,62611
993.096942391941,64696
996.895638852337,65679
1000.6900327363,66606
1004.48012404384,67940
1009.52688622389,69604
1013.30693818642,70063
1017.08268757253,71030
1020.8541343822,71209
1024.62127861545,72045
1028.38412027226,72010
1032.14265935265,72227
1035.8968958566,72738
1039.64682978413,72451
1044.64004879083,72517
1048.37994337335,72330
1052.11553537944,71690
1055.84682480911,71875
1059.57381166234,71793
1063.29649593914,71213
1067.01487763952,71368
1070.72895676346,71057
1074.43873331097,71119
1079.37840914432,70866
1083.07814634683,70869
1086.77358097292,71137
1090.46471302257,71000
1094.15154249579,71450
1097.83406939258,71688
1101.51229371294,71966
1105.18621545688,72304
1108.85583462438,72582
1113.74196728438,73175
1117.40154710688,74117
1121.05682435295,74105
1124.70779902259,74899
1128.3544711158,75641
1131.99684063258,76479
1135.63490757293,77193
1139.26867193685,77358
1142.89813372434,77969
1147.73072321099,78449
1151.35014565348,79199
1154.96526551954,80075
1158.57608280917,80605
1162.18259752237,80354
1165.78480965914,81269
1169.38271921947,82050
1172.97632620338,82546
1176.56563061086,83358
1181.34467692417,83617
1184.92394198664,84970
1188.49890447269,85483
1192.06956438231,86282
1195.63592171549,87543
1199.19797647225,88646
1202.75572865258,89949
1206.30917825648,91083
1209.85832528395,92248
1214.5838284239,93727
1218.12293610637,95455
1221.6577412124,96188
1225.18824374201,97471
1228.71444369518,98577
1232.23634107193,99687
1235.75393587224,100450
1239.26722809613,102117
1242.77621774359,103008
1247.44817771019,104833
1250.94712801265,106165
1254.44177573867,107509
1257.93212088826,109033
1261.41816346143,109776
1264.89990345816,110626
1268.37734087847,111407
1271.85047572234,112887
1275.31930798978,113359
1279.93772478304,114476
1283.39651770548,115381
1286.8510080515,115903
1290.30119582108,116452
1293.74708101423,117390
1297.18866363095,117621
1300.62594367125,118128
1304.05892113511,118939
1307.48759602254,119521
1312.05246964245,119704
1315.47110518488,120220
1318.88543815088,120232
1322.29546854045,120614
1325.70119635359,120620
1329.10262159031,120869
1332.49974425059,120492
1335.89256433444,121081
1339.28108184186,121057
1343.79241228842,120916
1347.17089045084,120405
1350.54506603683,120742
1353.91493904639,120333
1357.28050947952,119782
1360.64177733622,119699
1363.99874261649,119400
1367.35140532033,119343
1370.69976544774,119766
1375.15755272095,118740
1378.49587350336,117661
1381.82989170933,117220
1385.15960733888,116473
1388.485020392,115644
1391.80613086869,115387
1395.12293876895,114843
1398.43544409277,114168
1401.74364684017,113551
1406.14789094004,112624
1409.44605434243,111663
1412.7399151684,111332
1416.02947341793,110455
1419.31472909104,110241
1422.59568218772,110368
1425.87233270796,110028
1429.14468065178,109386
1432.41272601917,109446
1436.76342694568,108321
1440.02143296807,108337
1443.27513641402,107982
1446.52453728354,108127
1449.76963557664,107698
1453.0104312933,107113
1456.24692443354,106892
1459.47911499734,106837
1462.70700298472,106049
1467.00416073789,105596
1470.22200938026,105081
1473.4355554462,104599
1476.64479893571,103700
1479.8497398488,103214
1483.05037818545,102251
1486.24671394567,101681
1489.43874712947,100436
1492.62647773683,99364
1496.87009231665,98107
1500.04778357901,97599
1503.22117226494,97114
1506.39025837444,95911
1509.55504190751,95039
1512.71552286416,94544
1515.87170124437,93352
1519.02357704815,92810
1522.1711502755,92052
1526.36122168197,90678
1529.49875556432,90143
1532.63198687024,89056
1535.76091559973,88115
1538.88554175279,87046
1542.00586532942,86298
1545.12188632962,85700
1548.23360475339,84194
1551.34102060073,83677
1555.47754883385,82297
1558.57492533619,80785
1561.6679992621,79543
1564.75677061158,78403
1567.84123938463,77073
1570.92140558125,75317
1573.99726920143,73862
1577.06883024519,72802
1580.13608871252,71129
1584.21907377229,69137
1587.27629289462,67427
1590.32920944052,66284
1593.37782340998,64809
1596.42213480302,63897
1599.46214361963,62475
1602.49784985981,60612
1605.52925352355,59893
1608.55635461087,58312
1612.58579649729,55932
1615.60285823961,55223
1618.61561740549,53769
1621.62407399495,52410
1624.62822800797,50564
1627.62807944457,48971
1630.62362830474,48123
1633.61487458847,46909
1636.60181829578,45118
1640.57771700885,43697
1643.55462137116,41787
1646.52722315703,40777
1649.49552236647,39563
1652.45951899949,37641
1655.41921305607,36993
1658.37460453623,35376
1661.32569343995,34300
1664.27247976724,32974
1668.19483530697,31525
1671.13158228926,29509
1674.06402669512,28563
1676.99216852456,26977
1679.91600777756,25271
1682.83554445413,23608
1685.75077855427,21699
1688.66171007799,19745
1691.56833902527,17476
1695.43715139165,14554
1698.33374099393,12731
1701.22602801978,10608
##END=
