##TITLE=Column 1
##JCAMP-DX=4.24
##DATA TYPE=INFRARED SPECTRUM
##Method:,Column 1,Built-In Reference,,,Model Name,NIR-S-G1
##Host Date-Time:,27/10/20 @ 13:11:41,13/5/20 @ 16:0:36,,,GUI Version,3.6.4
##Header Version:,1,1,,,Tiva Version,2.4.4.0
##System Temp (C):,47.93,34.7,,,DLPC Version,2.2.0
##Detector Temp (C),0,0,,,UUID,DE:67:0C:88:67:4B:68:21
##Humidity (%):,30.4,35.27,,,Main Board Version,D
##Lamp PD:,1923,1767
##Shift Vector Coefficients:,-7.40266672958336,0.0577935962102471,-0.000112288131265282
##Pixel to Wavelength Coefficients:,1779.07784909224,-0.923938295271985,-0.000239032023878199
##Serial Number:,947R033,947R033
##Scan Config Name:,Column 1,SystemTest
##Scan Config Type:,Column,Column
##Start wavelength (nm):,900,900
##End wavelength (nm):,1700,1700
##Pattern Pixel Width (nm):,7.03,7.03
##Exposure (ms):,0.635,0.635
##Digital Resolution:,228,228
##NPOINTS=228
##Num Repeats:,6,30
##PGA Gain:,64,64
##Total Measurement Time in sec:,2.0981304
##XUNITS=Wavelength(nm)
##YUNITS=Reflectance(unitless)
##FIRSTX=901.938585242429
##LASTX=1701.22602801978
##PEAK TABLE=X+(Y..Y)
901.938585242429,0.295982218102141
905.839109344998,0.298361697824265
909.735330871137,0.296527734751861
913.627249820846,0.294656033029861
917.514866194126,0.289066809906797
921.398179990975,0.286119126133553
925.277191211395,0.285091962411673
929.151899855385,0.281707450566729
933.022305922945,0.285587660182888
938.17615444969,0.289555383080164
942.036521172247,0.294787743353337
945.892585318375,0.298017252838743
949.744346888073,0.302135975337741
953.59180588134,0.30434658105653
957.434962298178,0.306584850643145
961.273816138587,0.307325380319211
965.108367402565,0.311976692669632
968.938616090114,0.311987398691403
974.03892144351,0.313998589562764
977.859130786056,0.315972230767148
981.675037552172,0.317125552618791
985.486641741858,0.318695608454
989.293943355114,0.320977579625723
993.096942391941,0.32251058513372
996.895638852337,0.322351563996808
1000.6900327363,0.323695899183969
1004.48012404384,0.325904296283653
1009.52688622389,0.327474143893295
1013.30693818642,0.327852109280757
1017.08268757253,0.328738369118417
1020.8541343822,0.329676091197175
1024.62127861545,0.331565007072027
1028.38412027226,0.332437226370748
1032.14265935265,0.333314915969188
1035.8968958566,0.334085288893712
1039.64682978413,0.334181756616655
1044.64004879083,0.334749173617415
1048.37994337335,0.335879199537023
1052.11553537944,0.335753899182702
1055.84682480911,0.335575007592152
1059.57381166234,0.335584126923298
1063.29649593914,0.335370668900627
1067.01487763952,0.336056567183169
1070.72895676346,0.33622525283363
1074.43873331097,0.336418952657065
1079.37840914432,0.337040992965268
1083.07814634683,0.337283163067574
1086.77358097292,0.337024179917638
1090.46471302257,0.337489196238841
1094.15154249579,0.338167509403712
1097.83406939258,0.338169458438529
1101.51229371294,0.338534260862909
1105.18621545688,0.340041360241611
1108.85583462438,0.339801355992567
1113.74196728438,0.340575297253204
1117.40154710688,0.341445791230704
1121.05682435295,0.341766398468357
1124.70779902259,0.341567759746769
1128.3544711158,0.341623390377691
1131.99684063258,0.342063044625037
1135.63490757293,0.343751630013472
1139.26867193685,0.34415048019711
1142.89813372434,0.346012413382647
1147.73072321099,0.346797096875986
1151.35014565348,0.347502765813845
1154.96526551954,0.347558156385644
1158.57608280917,0.3475253459378
1162.18259752237,0.34857326436637
1165.78480965914,0.348410906272118
1169.38271921947,0.349156054680972
1172.97632620338,0.350066753459985
1176.56563061086,0.350566759851453
1181.34467692417,0.351050635647977
1184.92394198664,0.352770683364956
1188.49890447269,0.353405926841545
1192.06956438231,0.353518293489142
1195.63592171549,0.353673260456244
1199.19797647225,0.355829551572956
1202.75572865258,0.355262537689474
1206.30917825648,0.356388818385115
1209.85832528395,0.356830747742952
1214.5838284239,0.356727849707307
1218.12293610637,0.357572780995205
1221.6577412124,0.358453589627264
1225.18824374201,0.359296786070631
1228.71444369518,0.359821731229821
1232.23634107193,0.359241063028194
1235.75393587224,0.358770188087604
1239.26722809613,0.359794096283173
1242.77621774359,0.360198792552705
1247.44817771019,0.360578416807872
1250.94712801265,0.361270334274054
1254.44177573867,0.360868883732132
1257.93212088826,0.361066258246699
1261.41816346143,0.36147902526037
1264.89990345816,0.361464532246887
1268.37734087847,0.36118878511072
1271.85047572234,0.361575045935608
1275.31930798978,0.361130265778532
1279.93772478304,0.361157996118875
1283.39651770548,0.361354668485649
1286.8510080515,0.361255638123727
1290.30119582108,0.361820472706493
1293.74708101423,0.361611355634828
1297.18866363095,0.360957578666778
1300.62594367125,0.361367538725698
1304.05892113511,0.361921426880858
1307.48759602254,0.361424912529443
1312.05246964245,0.360979853208753
1315.47110518488,0.361456258047799
1318.88543815088,0.361234784403893
1322.29546854045,0.361127477311922
1325.70119635359,0.36135465947818
1329.10262159031,0.360732132651416
1332.49974425059,0.360902560635511
1335.89256433444,0.360773552120295
1339.28108184186,0.360282059691702
1343.79241228842,0.359626019655523
1347.17089045084,0.359327229125301
1350.54506603683,0.357829735767505
1353.91493904639,0.357463954549998
1357.28050947952,0.356730760583141
1360.64177733622,0.356746576112623
1363.99874261649,0.356863777152459
1367.35140532033,0.356820726339123
1370.69976544774,0.35646525659384
1375.15755272095,0.356700097114286
1378.49587350336,0.355675203263998
1381.82989170933,0.355681449385935
1385.15960733888,0.356255026478028
1388.485020392,0.355824512831923
1391.80613086869,0.355132815805449
1395.12293876895,0.355114405963935
1398.43544409277,0.354662642820913
1401.74364684017,0.354343612028909
1406.14789094004,0.354442418590841
1409.44605434243,0.353990036242413
1412.7399151684,0.353222685132356
1416.02947341793,0.35309464024676
1419.31472909104,0.353614222894788
1422.59568218772,0.353363021089686
1425.87233270796,0.353314329445962
1429.14468065178,0.353664790289043
1432.41272601917,0.354319159504775
1436.76342694568,0.355008003605143
1440.02143296807,0.355339192587566
1443.27513641402,0.355288284246599
1446.52453728354,0.354450215004972
1449.76963557664,0.35459777700263
1453.0104312933,0.355009553139783
1456.24692443354,0.354521329772949
1459.47911499734,0.355155494461833
1462.70700298472,0.355306628061608
1467.00416073789,0.35555520994218
1470.22200938026,0.355632613974568
1473.4355554462,0.355366003839328
1476.64479893571,0.354921987501987
1479.8497398488,0.355083655868101
1483.05037818545,0.355477244033683
1486.24671394567,0.354721876591562
1489.43874712947,0.354965383756421
1492.62647773683,0.354771237256771
1496.87009231665,0.353322313799508
1500.04778357901,0.353015538248485
1503.22117226494,0.352786348563502
1506.39025837444,0.353103587211149
1509.55504190751,0.352336603287679
1512.71552286416,0.352689660253442
1515.87170124437,0.352351228904896
1519.02357704815,0.352163177670424
1522.1711502755,0.35228789737022
1526.36122168197,0.35237894528054
1529.49875556432,0.352575653058523
1532.63198687024,0.351993251678264
1535.76091559973,0.352072239274752
1538.88554175279,0.352046013601505
1542.00586532942,0.351603438664437
1545.12188632962,0.351617998786278
1548.23360475339,0.351380394950526
1551.34102060073,0.351877641882192
1555.47754883385,0.351957073671622
1558.57492533619,0.351444911984855
1561.6679992621,0.350590348868262
1564.75677061158,0.350534244926693
1567.84123938463,0.349745690517037
1570.92140558125,0.34960839402983
1573.99726920143,0.349625664707529
1577.06883024519,0.349266855353896
1580.13608871252,0.350566909997899
1584.21907377229,0.351103514927253
1587.27629289462,0.349889764626352
1590.32920944052,0.3500294533459
1593.37782340998,0.350986540149563
1596.42213480302,0.351095028423093
1599.46214361963,0.349540507071629
1602.49784985981,0.350912665344556
1605.52925352355,0.351035923638827
1608.55635461087,0.35041771633315
1612.58579649729,0.350449835751919
1615.60285823961,0.35118785189254
1618.61561740549,0.351452907671858
1621.62407399495,0.351390888876451
1624.62822800797,0.350790808713817
1627.62807944457,0.351943003784652
1630.62362830474,0.349503360395869
1633.61487458847,0.350204772206996
1636.60181829578,0.348530797314804
1640.57771700885,0.345323895521335
1643.55462137116,0.342977117125105
1646.52722315703,0.342063883830938
1649.49552236647,0.337636842816597
1652.45951899949,0.33430137062898
1655.41921305607,0.331487811590215
1658.37460453623,0.331337977889508
1661.32569343995,0.332190574588489
1664.27247976724,0.336961093800409
1668.19483530697,0.348306878075068
1671.13158228926,0.357035681270236
1674.06402669512,0.371834991463177
1676.99216852456,0.390469432434514
1679.91600777756,0.415587720496046
1682.83554445413,0.454322814174291
1685.75077855427,0.488356002565055
1688.66171007799,0.534024879694894
1691.56833902527,0.564114434947768
1695.43715139165,0.597490042834598
1698.33374099393,0.610479009879802
1701.22602801978,0.615102221659599
##END=
