##TITLE=Column 1
##JCAMP-DX=4.24
##DATA TYPE=INFRARED SPECTRUM
##Method:,Column 1,Built-In Reference,,,Model Name,NIR-X-XX
##Host Date-Time:,27/10/20 @ 15:0:19,9/7/19 @ 16:39:9,,,GUI Version,2.4.4
##Header Version:,1,1,,,Tiva Version,2.1.0.67
##System Temp (C):,49.29,27.52,,,DLPC Version,2.0.0
##Detector Temp (C),0,0,,,UUID,DE:67:0C:88:67:19:47:21
##Humidity (%):,14.38,73.2,,,Main Board Version,D
##Lamp PD:,2673,2274
##Shift Vector Coefficients:,-6.85384978732833,0.0551332794684546,-0.000110731550088635
##Pixel to Wavelength Coefficients:,1790.66412099084,-0.917492857141292,-0.000239200785115314
##Serial Number:,925R021,925R021
##Scan Config Name:,Column 1,SystemTest
##Scan Config Type:,Column,Column
##Start wavelength (nm):,900,900
##End wavelength (nm):,1700,1700
##Pattern Pixel Width (nm):,7.03,7.03
##Exposure (ms):,0.635,0.635
##Digital Resolution:,228,228
##NPOINTS=228
##Num Repeats:,6,30
##PGA Gain:,64,64
##Total Measurement Time in sec:,1.8810404
##XUNITS=Wavelength(nm)
##YUNITS=Reflectance(AU)
##FIRSTX=901.630473432251
##LASTX=1700.8619821734
##PEAK TABLE=X+(Y..Y)
901.630473432251,0.281824323662747
905.531115772228,0.281009463722397
909.427452498074,0.277127891019848
913.319483609787,0.276258715667013
917.207209107368,0.274778927957755
921.090628990817,0.267150313413081
924.969743260134,0.263108702264746
930.13519799724,0.263369149067556
934.004265833582,0.265435695572043
937.869028055792,0.270200323205171
941.72948466387,0.275788998249807
945.585635657816,0.279075182609879
949.43748103763,0.283103156998345
953.285020803312,0.284753229940025
957.128254954862,0.285822542180222
960.967183492279,0.287541468483952
966.07905725352,0.288261629240915
969.907939357962,0.289266818053605
973.732515848273,0.288886307118218
977.552786724452,0.287722546339153
981.368751986498,0.289515376834251
985.180411634413,0.289106956517269
988.987765668195,0.290087809109754
992.790814087846,0.28978943580708
996.589556893364,0.290512923556453
1001.64784967874,0.29087093895468
1005.43654605128,0.291520246655879
1009.22093680969,0.292124930337571
1013.00102195397,0.292562136366763
1016.77680148412,0.292714768179969
1020.54827540013,0.293061361450538
1024.31544370202,0.293549165322447
1028.07830638977,0.29330383159371
1031.83686346339,0.295066523976869
1036.8415752729,0.29508805595964
1040.59008591354,0.295396743443383
1044.33429094005,0.296171530787423
1048.07419035243,0.296427453718193
1051.80978415068,0.297089782982822
1055.5410723348,0.297798905019387
1059.26805490478,0.297765130011596
1062.99073186063,0.297499301650534
1066.70910320235,0.299490213905953
1071.66023403599,0.299101131242617
1075.36855894474,0.298905862472756
1079.07257823935,0.299366626889611
1082.77229191983,0.299147971923005
1086.46769998618,0.299525687346315
1090.1588024384,0.299765964241624
1093.84559927648,0.300247757287779
1097.52809050043,0.301047249705439
1101.20627611025,0.301494071607967
1106.10382596803,0.301280495275876
1109.77196514487,0.301780150293255
1113.43579870759,0.302265097241088
1117.09532665617,0.301903412354946
1120.75054899062,0.301980928697301
1124.40146571093,0.301385332865935
1128.04807681712,0.300622370555951
1131.69038230917,0.301056372661521
1135.32838218709,0.302543611902872
1140.172351069,0.304067534807886
1143.80030451395,0.304306189548951
1147.42395234476,0.305729337119812
1151.04329456145,0.305469050848025
1154.658331164,0.306152920926567
1158.26906215241,0.30550688077635
1161.8754875267,0.304763571111771
1165.47760728685,0.30477667868727
1169.07542143287,0.305665998029981
1173.86580933892,0.306199172604722
1177.45357705197,0.3057952808578
1181.03703915088,0.306095732410611
1184.61619563566,0.306351431436907
1188.19104650631,0.307017362759874
1191.76159176283,0.308113848138237
1195.32783140522,0.307745523826257
1198.88976543347,0.30903420490437
1202.44739384759,0.308938741677585
1207.18420077777,0.30951371540491
1210.73178275892,0.310120291576133
1214.27505912594,0.31029388433305
1217.81402987882,0.31064876550693
1221.34869501757,0.311017071699142
1224.87905454219,0.311150854855118
1228.40510845267,0.310788342743059
1231.92685674903,0.3115853218946
1235.44429943125,0.311649752100927
1240.12752538557,0.311888404381171
1243.63492163481,0.3123459691459
1247.13801226993,0.312914575408802
1250.63679729091,0.312698552905307
1254.13127669776,0.313122096881221
1257.62145049048,0.3133683396305
1261.10731866907,0.313529902887024
1264.58888123353,0.312917292756014
1268.06613818385,0.313319736830877
1272.6957831623,0.313633375756982
1276.16299367965,0.313978884545968
1279.62589858286,0.313594959249366
1283.08449787195,0.313664073653868
1286.5387915469,0.31355684601268
1289.98877960772,0.313639996898968
1293.43446205441,0.31374905068165
1296.87583888696,0.313747954173486
1300.31291010539,0.314277195157833
1304.88897410797,0.314118417081784
1308.31599889342,0.31453216758899
1311.73871806474,0.314454530107653
1315.15713162192,0.314295492729875
1318.57123956497,0.314627279140965
1321.98104189389,0.31486372409478
1325.38653860868,0.314402272554053
1328.78772970934,0.314774745680607
1332.18461519586,0.314514023354592
1336.70709822258,0.314959713402569
1340.09393727613,0.314555297596928
1343.47647071555,0.314607601902033
1346.85469854083,0.313910244064938
1350.22862075199,0.314013839700371
1353.59823734901,0.31362737157432
1356.9635483319,0.313421878569174
1360.32455370065,0.313313005027207
1363.68125345528,0.313439959895044
1368.15015550613,0.313587653999804
1371.49680882778,0.313319582743189
1374.8391565353,0.313172733321499
1378.17719862868,0.313457665703529
1381.51093510794,0.313590108735816
1384.84036597306,0.313226191009224
1388.16549122405,0.31255816975187
1391.48631086091,0.312821914531959
1394.80282488363,0.31224493889997
1399.21814595862,0.311136697365368
1402.52461354837,0.310832632804398
1405.82677552399,0.310070703316505
1409.12463188548,0.309957647985817
1412.41818263283,0.309300548524002
1415.70742776605,0.309447265341651
1418.99236728514,0.308943526108813
1422.2730011901,0.309416343542602
1425.54932948093,0.308563717679254
1429.91106958005,0.310057051183311
1433.1773514379,0.310735005034281
1436.43932768162,0.310191392151788
1439.6969983112,0.310839236573974
1442.95036332666,0.311401551221569
1446.19942272798,0.312168288649418
1449.44417651517,0.312050781193143
1452.68462468823,0.312360271077753
1456.99852463033,0.31259628765897
1460.22892637041,0.312850764419482
1463.45502249637,0.312748345586885
1466.67681300819,0.312885488037988
1469.89429790587,0.313108055951129
1473.10747718943,0.313661534807073
1476.31635085885,0.31381524487102
1479.52091891415,0.31326834357042
1482.72118135531,0.314407296664231
1486.98150032154,0.314918929582167
1490.17171632972,0.314798532114573
1493.35762672377,0.315547125183348
1496.53923150369,0.315258681599693
1499.71653066948,0.315262224710713
1502.88952422114,0.315540298217616
1506.05821215866,0.315458264248337
1509.22259448206,0.315890524174322
1512.38267119132,0.31639857573689
1516.58940918168,0.315956250638863
1519.73943945797,0.316384993956563
1522.88516412012,0.316538617064294
1526.02658316814,0.317011563197707
1529.16369660203,0.317114489125754
1532.29650442179,0.317551009309645
1535.42500662741,0.316896451075666
1538.54920321891,0.317938813296141
1541.66909419627,0.317485551671439
1545.82225121076,0.318127240191329
1548.93209575515,0.31784393330829
1552.0376346854,0.317741583880913
1555.13886800153,0.319429691968298
1558.23579570352,0.318228294784572
1561.32841779137,0.31850255775483
1564.4167342651,0.318671339255568
1567.50074512469,0.319171967238327
1570.58045037016,0.319236894785194
1574.68002640879,0.319471460467371
1577.74968522127,0.318597723718833
1580.81503841963,0.31967820381706
1583.87608600385,0.31910514658321
1586.93282797394,0.318065541343942
1589.9852643299,0.319394914796394
1593.03339507173,0.318542456397574
1596.07722019942,0.317911900763413
1599.11673971298,0.317542537752786
1603.16273477575,0.317818160039528
1606.19220785634,0.317425188066849
1609.21737532279,0.317386932048218
1612.23823717512,0.31660577596859
1615.25479341331,0.316002193583767
1618.26704403737,0.316095071342853
1621.27498904729,0.315576817775728
1624.27862844309,0.314219464440987
1627.27796222475,0.31479574634822
1631.27037631165,0.312451935805146
1634.25966366034,0.311094034719115
1637.2446453949,0.309812153147411
1640.22532151532,0.306768772835543
1643.20169202161,0.302903476162294
1646.17375691377,0.299527749304437
1649.1415161918,0.295005534244083
1652.10496985569,0.292712832221834
1655.06411790546,0.290615828584976
1659.00295101649,0.293173303127995
1661.95205263328,0.301058421149935
1664.89684863594,0.316960162092905
1667.83733902446,0.334659121823821
1670.77352379886,0.366317531997249
1673.70540295912,0.40257613036781
1676.63297650524,0.449532717868771
1679.55624443724,0.501989022127871
1682.4752067551,0.550512080574888
1686.36045889027,0.61332691027076
1689.26937477516,0.651290682753679
1692.17398504592,0.669207970986234
1695.07428970255,0.691520634414238
1697.97028874504,0.68204653622422
1700.8619821734,0.670901539213291
##END=
