##TITLE=Column 1
##JCAMP-DX=4.24
##DATA TYPE=INFRARED SPECTRUM
##Method:,Column 1,Built-In Reference,,,Model Name,NIR-X-XX
##Host Date-Time:,27/10/20 @ 15:0:46,9/7/19 @ 16:39:9,,,GUI Version,2.4.4
##Header Version:,1,1,,,Tiva Version,2.1.0.67
##System Temp (C):,49.47,27.52,,,DLPC Version,2.0.0
##Detector Temp (C),0,0,,,UUID,DE:67:0C:88:67:19:47:21
##Humidity (%):,14.33,73.2,,,Main Board Version,D
##Lamp PD:,2674,2274
##Shift Vector Coefficients:,-6.85384978732833,0.0551332794684546,-0.000110731550088635
##Pixel to Wavelength Coefficients:,1790.66412099084,-0.917492857141292,-0.000239200785115314
##Serial Number:,925R021,925R021
##Scan Config Name:,Column 1,SystemTest
##Scan Config Type:,Column,Column
##Start wavelength (nm):,900,900
##End wavelength (nm):,1700,1700
##Pattern Pixel Width (nm):,7.03,7.03
##Exposure (ms):,0.635,0.635
##Digital Resolution:,228,228
##NPOINTS=228
##Num Repeats:,6,30
##PGA Gain:,64,64
##Total Measurement Time in sec:,1.8970167
##XUNITS=Wavelength(nm)
##YUNITS=Reflectance(AU)
##FIRSTX=901.630473432251
##LASTX=1700.8619821734
##PEAK TABLE=X+(Y..Y)
901.630473432251,0.363356865202534
905.531115772228,0.36013519603425
909.427452498074,0.35795093215517
913.319483609787,0.355329558149389
917.207209107368,0.350641912185854
921.090628990817,0.341326823664561
924.969743260134,0.33683599258911
930.13519799724,0.33131454194811
934.004265833582,0.333385127348535
937.869028055792,0.340041440663051
941.72948466387,0.345175677964507
945.585635657816,0.350181087384066
949.43748103763,0.351369726604081
953.285020803312,0.35334817300325
957.128254954862,0.352256988114077
960.967183492279,0.352648909905395
966.07905725352,0.350939222618999
969.907939357962,0.351031549075865
973.732515848273,0.348937370853838
977.552786724452,0.347470990936686
981.368751986498,0.348229792041618
985.180411634413,0.347304111814205
988.987765668195,0.346593803430658
992.790814087846,0.346719938456193
996.589556893364,0.346044519373083
1001.64784967874,0.345717662381515
1005.43654605128,0.346515123950324
1009.22093680969,0.346437808717687
1013.00102195397,0.34738255224578
1016.77680148412,0.347507733641102
1020.54827540013,0.347577041502336
1024.31544370202,0.348256141230564
1028.07830638977,0.347878101591483
1031.83686346339,0.347179938637059
1036.8415752729,0.34744307968487
1040.59008591354,0.347966803392326
1044.33429094005,0.34784446018464
1048.07419035243,0.347673270902044
1051.80978415068,0.347756089201277
1055.5410723348,0.347774943242053
1059.26805490478,0.34761059112942
1062.99073186063,0.34814239041986
1066.70910320235,0.34792353937897
1071.66023403599,0.348120834406888
1075.36855894474,0.348230542268426
1079.07257823935,0.348280326783808
1082.77229191983,0.349030824076168
1086.46769998618,0.349236335078785
1090.1588024384,0.349266195417475
1093.84559927648,0.35022989131335
1097.52809050043,0.351043839617694
1101.20627611025,0.35127153787746
1106.10382596803,0.35229224605668
1109.77196514487,0.353796279325513
1113.43579870759,0.35476529031496
1117.09532665617,0.355281862275759
1120.75054899062,0.355359554883667
1124.40146571093,0.356314979078013
1128.04807681712,0.356591690131233
1131.69038230917,0.358889114749655
1135.32838218709,0.360372496193042
1140.172351069,0.363402913350353
1143.80030451395,0.364350241006161
1147.42395234476,0.365729548261774
1151.04329456145,0.365950491402548
1154.658331164,0.36745608759669
1158.26906215241,0.368809201484826
1161.8754875267,0.369666057673919
1165.47760728685,0.369899470153313
1169.07542143287,0.370038562922966
1173.86580933892,0.370483538609158
1177.45357705197,0.369846338133889
1181.03703915088,0.370680507497117
1184.61619563566,0.371119392778993
1188.19104650631,0.372268006989398
1191.76159176283,0.372454577128074
1195.32783140522,0.372876299659769
1198.88976543347,0.373001583744318
1202.44739384759,0.373236361043522
1207.18420077777,0.372815853739721
1210.73178275892,0.372696456938589
1214.27505912594,0.37255259876182
1217.81402987882,0.372410460527202
1221.34869501757,0.37195394580471
1224.87905454219,0.371294260492895
1228.40510845267,0.3705525270138
1231.92685674903,0.370475572537428
1235.44429943125,0.370425030918105
1240.12752538557,0.368995633187773
1243.63492163481,0.369134458692674
1247.13801226993,0.368060872674043
1250.63679729091,0.36769028335765
1254.13127669776,0.367460939856428
1257.62145049048,0.36692648677595
1261.10731866907,0.367107556649236
1264.58888123353,0.366218285750543
1268.06613818385,0.366020406131511
1272.6957831623,0.36574313645963
1276.16299367965,0.365581367023574
1279.62589858286,0.364685980412301
1283.08449787195,0.364279393962424
1286.5387915469,0.364915573495692
1289.98877960772,0.363828598467128
1293.43446205441,0.363728338281296
1296.87583888696,0.363695158650546
1300.31291010539,0.363574986339372
1304.88897410797,0.363562728706233
1308.31599889342,0.364074565613494
1311.73871806474,0.364050021426624
1315.15713162192,0.364427983240339
1318.57123956497,0.364186175962304
1321.98104189389,0.364135837660835
1325.38653860868,0.364518083417409
1328.78772970934,0.364310673340869
1332.18461519586,0.364275022685028
1336.70709822258,0.364444329483581
1340.09393727613,0.364518848172285
1343.47647071555,0.363858520733404
1346.85469854083,0.363723903165193
1350.22862075199,0.363614155319741
1353.59823734901,0.363763696485745
1356.9635483319,0.363615117389117
1360.32455370065,0.363396570560772
1363.68125345528,0.363336497642767
1368.15015550613,0.363665500423093
1371.49680882778,0.363054623591058
1374.8391565353,0.363192992393701
1378.17719862868,0.363241233254531
1381.51093510794,0.363310761344466
1384.84036597306,0.363406129667771
1388.16549122405,0.363501808470222
1391.48631086091,0.362012020989753
1394.80282488363,0.362102219318156
1399.21814595862,0.36126862348674
1402.52461354837,0.36075073591648
1405.82677552399,0.359644010464496
1409.12463188548,0.358923181209842
1412.41818263283,0.358522711619632
1415.70742776605,0.358243145219788
1418.99236728514,0.358188155333323
1422.2730011901,0.358465850506107
1425.54932948093,0.358310177485398
1429.91106958005,0.359391938432386
1433.1773514379,0.35999105016701
1436.43932768162,0.360092656951162
1439.6969983112,0.360009245543314
1442.95036332666,0.360877814042408
1446.19942272798,0.361070668607907
1449.44417651517,0.362069266665308
1452.68462468823,0.361942723894192
1456.99852463033,0.362580443547504
1460.22892637041,0.362059856964947
1463.45502249637,0.362382942468289
1466.67681300819,0.362552190566864
1469.89429790587,0.362648672868671
1473.10747718943,0.362844247813887
1476.31635085885,0.363845448240374
1479.52091891415,0.364142018219916
1482.72118135531,0.364105654010981
1486.98150032154,0.364068012655635
1490.17171632972,0.364803722225275
1493.35762672377,0.364480828156078
1496.53923150369,0.365404089987771
1499.71653066948,0.365056924225457
1502.88952422114,0.364786453822626
1506.05821215866,0.365289383969546
1509.22259448206,0.365126037064115
1512.38267119132,0.365174138920137
1516.58940918168,0.366615882101929
1519.73943945797,0.366526716246297
1522.88516412012,0.36613878871403
1526.02658316814,0.366819954013796
1529.16369660203,0.366914970930233
1532.29650442179,0.367098782846325
1535.42500662741,0.367190907061793
1538.54920321891,0.368033820469443
1541.66909419627,0.368190840901505
1545.82225121076,0.368435982936633
1548.93209575515,0.368444245383882
1552.0376346854,0.368907850892218
1555.13886800153,0.369966723365694
1558.23579570352,0.369874157108721
1561.32841779137,0.370291840017115
1564.4167342651,0.371540673644503
1567.50074512469,0.372147451190706
1570.58045037016,0.371741999671041
1574.68002640879,0.372520545300307
1577.74968522127,0.372839950681273
1580.81503841963,0.373105935252183
1583.87608600385,0.373898801940069
1586.93282797394,0.373921257042527
1589.9852643299,0.374475918943643
1593.03339507173,0.373537886204513
1596.07722019942,0.375050629703233
1599.11673971298,0.374809509849764
1603.16273477575,0.375378687681857
1606.19220785634,0.375153478375184
1609.21737532279,0.37521451240058
1612.23823717512,0.375282834172252
1615.25479341331,0.373438442555525
1618.26704403737,0.374807836612641
1621.27498904729,0.375391221649039
1624.27862844309,0.374906096760264
1627.27796222475,0.374114202227669
1631.27037631165,0.373640019666923
1634.25966366034,0.372919220019584
1637.2446453949,0.371785930007108
1640.22532151532,0.367623453713665
1643.20169202161,0.363613167528413
1646.17375691377,0.361582955044662
1649.1415161918,0.358861613573302
1652.10496985569,0.353747725584667
1655.06411790546,0.350420607735258
1659.00295101649,0.353467805175569
1661.95205263328,0.360302273987798
1664.89684863594,0.377933712741972
1667.83733902446,0.402878284999184
1670.77352379886,0.436026802831216
1673.70540295912,0.483317186051537
1676.63297650524,0.536298605867212
1679.55624443724,0.597184768680552
1682.4752067551,0.654874667572003
1686.36045889027,0.73854829340172
1689.26937477516,0.781425500358292
1692.17398504592,0.810572085949382
1695.07428970255,0.826971720256136
1697.97028874504,0.829323109465891
1700.8619821734,0.815752504275592
##END=
