##TITLE=Column 1
##JCAMP-DX=4.24
##DATA TYPE=INFRARED SPECTRUM
##Method:,Column 1,Built-In Reference,,,Model Name,NIR-X-XX
##Host Date-Time:,27/10/20 @ 15:0:0,9/7/19 @ 16:39:9,,,GUI Version,2.4.4
##Header Version:,1,1,,,Tiva Version,2.1.0.67
##System Temp (C):,49.15,27.52,,,DLPC Version,2.0.0
##Detector Temp (C),0,0,,,UUID,DE:67:0C:88:67:19:47:21
##Humidity (%):,14.47,73.2,,,Main Board Version,D
##Lamp PD:,2670,2274
##Shift Vector Coefficients:,-6.85384978732833,0.0551332794684546,-0.000110731550088635
##Pixel to Wavelength Coefficients:,1790.66412099084,-0.917492857141292,-0.000239200785115314
##Serial Number:,925R021,925R021
##Scan Config Name:,Column 1,SystemTest
##Scan Config Type:,Column,Column
##Start wavelength (nm):,900,900
##End wavelength (nm):,1700,1700
##Pattern Pixel Width (nm):,7.03,7.03
##Exposure (ms):,0.635,0.635
##Digital Resolution:,228,228
##NPOINTS=228
##Num Repeats:,6,30
##PGA Gain:,64,64
##Total Measurement Time in sec:,1.8151441
##XUNITS=Wavelength(nm)
##YUNITS=Absorbance(AU)
##FIRSTX=901.630473432251
##LASTX=1700.8619821734
##PEAK TABLE=X+(Y..Y)
901.630473432251,0.473964769201545
905.531115772228,0.476479779217274
909.427452498074,0.477284816423105
913.319483609787,0.483542630123582
917.207209107368,0.490240140483417
921.090628990817,0.500891213453937
924.969743260134,0.51043684336399
930.13519799724,0.516839382439911
934.004265833582,0.513032065400926
937.869028055792,0.507495273300809
941.72948466387,0.500480860679563
945.585635657816,0.495589846827152
949.43748103763,0.493088874365106
953.285020803312,0.490135522435194
957.128254954862,0.488693223547558
960.967183492279,0.490689102341041
966.07905725352,0.49105354737964
969.907939357962,0.491988883162953
973.732515848273,0.493855851962114
977.552786724452,0.49573313366792
981.368751986498,0.496334512158559
985.180411634413,0.497234395346683
988.987765668195,0.497143813300564
992.790814087846,0.49628309316036
996.589556893364,0.498384362836877
1001.64784967874,0.497641992651699
1005.43654605128,0.496703695916661
1009.22093680969,0.495909038506644
1013.00102195397,0.494493374724643
1016.77680148412,0.495685229706843
1020.54827540013,0.492952126781935
1024.31544370202,0.493501873192411
1028.07830638977,0.49201405429705
1031.83686346339,0.492648466942118
1036.8415752729,0.489392788740765
1040.59008591354,0.489674019591468
1044.33429094005,0.489037249422394
1048.07419035243,0.488292803001957
1051.80978415068,0.487343789332518
1055.5410723348,0.486152510167119
1059.26805490478,0.4857050535867
1062.99073186063,0.485149088050298
1066.70910320235,0.484336951636585
1071.66023403599,0.482491611844379
1075.36855894474,0.483031253781284
1079.07257823935,0.480979043458103
1082.77229191983,0.480040520763649
1086.46769998618,0.478533565259151
1090.1588024384,0.478245722180365
1093.84559927648,0.47598405928809
1097.52809050043,0.475522696723483
1101.20627611025,0.473746492948344
1106.10382596803,0.472385230796679
1109.77196514487,0.471022191442746
1113.43579870759,0.47094074445755
1117.09532665617,0.470952498872991
1120.75054899062,0.47013447260354
1124.40146571093,0.47058480761867
1128.04807681712,0.470504018096235
1131.69038230917,0.468839648202317
1135.32838218709,0.466826773922675
1140.172351069,0.463730698104911
1143.80030451395,0.461498926045215
1147.42395234476,0.46212289998201
1151.04329456145,0.46131637282879
1154.658331164,0.46100631959581
1158.26906215241,0.459676893772681
1161.8754875267,0.459436668545917
1165.47760728685,0.460254354364504
1169.07542143287,0.459540141701881
1173.86580933892,0.460211391358409
1177.45357705197,0.460358280588444
1181.03703915088,0.459440578392052
1184.61619563566,0.459554071560978
1188.19104650631,0.458523443512184
1191.76159176283,0.459398797838389
1195.32783140522,0.458114266490941
1198.88976543347,0.458389990024754
1202.44739384759,0.458337963974007
1207.18420077777,0.459251605213428
1210.73178275892,0.459199838034719
1214.27505912594,0.460154400735023
1217.81402987882,0.460100655781926
1221.34869501757,0.460182016282723
1224.87905454219,0.460329440604753
1228.40510845267,0.460844239453885
1231.92685674903,0.46021357311958
1235.44429943125,0.461497548858692
1240.12752538557,0.462222144587285
1243.63492163481,0.462298028193526
1247.13801226993,0.463348630469519
1250.63679729091,0.463576827739018
1254.13127669776,0.463850189103647
1257.62145049048,0.463080086040575
1261.10731866907,0.464074897553266
1264.58888123353,0.46363922815891
1268.06613818385,0.46449676306694
1272.6957831623,0.46554328231145
1276.16299367965,0.464661846190058
1279.62589858286,0.465906235598645
1283.08449787195,0.46596766229112
1286.5387915469,0.46631634656769
1289.98877960772,0.466318929738435
1293.43446205441,0.466472947261253
1296.87583888696,0.466648000751876
1300.31291010539,0.466676194923734
1304.88897410797,0.466465022769037
1308.31599889342,0.466405763488103
1311.73871806474,0.466485294627796
1315.15713162192,0.466391566991713
1318.57123956497,0.466940386003912
1321.98104189389,0.466235027473601
1325.38653860868,0.466521475994332
1328.78772970934,0.466924308845524
1332.18461519586,0.467027644908212
1336.70709822258,0.466451779532676
1340.09393727613,0.466433915331864
1343.47647071555,0.46744649490113
1346.85469854083,0.467083311115958
1350.22862075199,0.467525790905395
1353.59823734901,0.467217205414603
1356.9635483319,0.468831558431929
1360.32455370065,0.468379247834281
1363.68125345528,0.468442545718505
1368.15015550613,0.469194206862961
1371.49680882778,0.468736170734235
1374.8391565353,0.468536557899037
1378.17719862868,0.46882343863971
1381.51093510794,0.468478977153727
1384.84036597306,0.468460177243996
1388.16549122405,0.468980227777451
1391.48631086091,0.469936163130799
1394.80282488363,0.470998128588249
1399.21814595862,0.472451470293435
1402.52461354837,0.473103284914256
1405.82677552399,0.474078915588816
1409.12463188548,0.47419975827581
1412.41818263283,0.475943398384591
1415.70742776605,0.476335032522824
1418.99236728514,0.476700319844898
1422.2730011901,0.476242316672704
1425.54932948093,0.475386790446338
1429.91106958005,0.474551457387919
1433.1773514379,0.473798614560956
1436.43932768162,0.472722967460587
1439.6969983112,0.472510557270294
1442.95036332666,0.471940829561535
1446.19942272798,0.471334085599668
1449.44417651517,0.471689279514698
1452.68462468823,0.471819299007098
1456.99852463033,0.471198494474073
1460.22892637041,0.471196515064813
1463.45502249637,0.470581884684107
1466.67681300819,0.470787560808959
1469.89429790587,0.470020091558797
1473.10747718943,0.470436460314721
1476.31635085885,0.469432141850164
1479.52091891415,0.468762150275485
1482.72118135531,0.468494338915484
1486.98150032154,0.4678844272864
1490.17171632972,0.468149365066899
1493.35762672377,0.468118892045082
1496.53923150369,0.467672052665225
1499.71653066948,0.467952081874231
1502.88952422114,0.467905742804083
1506.05821215866,0.467873789953165
1509.22259448206,0.46680533623215
1512.38267119132,0.46671189737282
1516.58940918168,0.466764803365134
1519.73943945797,0.46699736543307
1522.88516412012,0.465933382324588
1526.02658316814,0.466599693435647
1529.16369660203,0.466257563514794
1532.29650442179,0.465862386865143
1535.42500662741,0.466532538411247
1538.54920321891,0.465998447406689
1541.66909419627,0.466182156805522
1545.82225121076,0.466288151272178
1548.93209575515,0.4665694409772
1552.0376346854,0.46631215465714
1555.13886800153,0.466383148563896
1558.23579570352,0.466658741728157
1561.32841779137,0.465394664947279
1564.4167342651,0.466134908727969
1567.50074512469,0.465055664152088
1570.58045037016,0.466148063000984
1574.68002640879,0.465786244451107
1577.74968522127,0.466161282059431
1580.81503841963,0.46545874377737
1583.87608600385,0.467010523615314
1586.93282797394,0.466940722375913
1589.9852643299,0.467215997709318
1593.03339507173,0.467870713819519
1596.07722019942,0.468370497078251
1599.11673971298,0.469879732701438
1603.16273477575,0.470876176064065
1606.19220785634,0.470176248499864
1609.21737532279,0.47176382729715
1612.23823717512,0.474257059431575
1615.25479341331,0.475376630090328
1618.26704403737,0.476165391697501
1621.27498904729,0.47576538182834
1624.27862844309,0.476881126779907
1627.27796222475,0.47962959262746
1631.27037631165,0.480531943911371
1634.25966366034,0.482969009385581
1637.2446453949,0.486554991196984
1640.22532151532,0.494894246170839
1643.20169202161,0.500067338860518
1646.17375691377,0.505992801608122
1649.1415161918,0.512621909929308
1652.10496985569,0.519864348500599
1655.06411790546,0.523961780384712
1659.00295101649,0.523901640245414
1661.95205263328,0.51060210092076
1664.89684863594,0.493390744297502
1667.83733902446,0.466659703118763
1670.77352379886,0.426389192586023
1673.70540295912,0.383811975693048
1676.63297650524,0.336171343748959
1679.55624443724,0.291711706865484
1682.4752067551,0.246546591014614
1686.36045889027,0.195578814288148
1689.26937477516,0.170907771505616
1692.17398504592,0.154747142502962
1695.07428970255,0.145920255840815
1697.97028874504,0.148955194180939
1700.8619821734,0.156302549943889
##END=
