##TITLE=Column 1
##JCAMP-DX=4.24
##DATA TYPE=INFRARED SPECTRUM
##Method:,Column 1,Built-In Reference,,,Model Name,NIR-X-XX
##Host Date-Time:,27/10/20 @ 15:1:0,9/7/19 @ 16:39:9,,,GUI Version,2.4.4
##Header Version:,1,1,,,Tiva Version,2.1.0.67
##System Temp (C):,49.54,27.52,,,DLPC Version,2.0.0
##Detector Temp (C),0,0,,,UUID,DE:67:0C:88:67:19:47:21
##Humidity (%):,14.23,73.2,,,Main Board Version,D
##Lamp PD:,2673,2274
##Shift Vector Coefficients:,-6.85384978732833,0.0551332794684546,-0.000110731550088635
##Pixel to Wavelength Coefficients:,1790.66412099084,-0.917492857141292,-0.000239200785115314
##Serial Number:,925R021,925R021
##Scan Config Name:,Column 1,SystemTest
##Scan Config Type:,Column,Column
##Start wavelength (nm):,900,900
##End wavelength (nm):,1700,1700
##Pattern Pixel Width (nm):,7.03,7.03
##Exposure (ms):,0.635,0.635
##Digital Resolution:,228,228
##NPOINTS=228
##Num Repeats:,6,30
##PGA Gain:,64,64
##Total Measurement Time in sec:,1.7971728
##XUNITS=Wavelength(nm)
##YUNITS=Reflectance(AU)
##FIRSTX=901.630473432251
##LASTX=1700.8619821734
##PEAK TABLE=X+(Y..Y)
901.630473432251,0.294983893235159
905.531115772228,0.295718792248761
909.427452498074,0.297034508150082
913.319483609787,0.291875650063562
917.207209107368,0.287931492114049
921.090628990817,0.282227855055815
924.969743260134,0.278024500179742
930.13519799724,0.275448646697257
934.004265833582,0.278578426929435
937.869028055792,0.282508520136322
941.72948466387,0.289177032952557
945.585635657816,0.292906604763798
949.43748103763,0.295893910571172
953.285020803312,0.299202092525562
957.128254954862,0.299408728655168
960.967183492279,0.301195706647563
966.07905725352,0.301616062971744
969.907939357962,0.300877265461839
973.732515848273,0.300407458735467
977.552786724452,0.300755096768638
981.368751986498,0.300918274851881
985.180411634413,0.29957797231375
988.987765668195,0.300674329579212
992.790814087846,0.301269341009765
996.589556893364,0.300402850337669
1001.64784967874,0.301743807433492
1005.43654605128,0.301660331108707
1009.22093680969,0.303004177364117
1013.00102195397,0.303543771183526
1016.77680148412,0.30281343714229
1020.54827540013,0.303957408295741
1024.31544370202,0.304878452594383
1028.07830638977,0.305515940889127
1031.83686346339,0.30512283266141
1036.8415752729,0.305806669730035
1040.59008591354,0.306760271156623
1044.33429094005,0.307391622747518
1048.07419035243,0.307585642408339
1051.80978415068,0.307864609859063
1055.5410723348,0.308509093373479
1059.26805490478,0.308597408016614
1062.99073186063,0.308495573071645
1066.70910320235,0.309795331944407
1071.66023403599,0.311060120659397
1075.36855894474,0.311120054500801
1079.07257823935,0.310693425190954
1082.77229191983,0.311120145099756
1086.46769998618,0.312069473275918
1090.1588024384,0.312399605332774
1093.84559927648,0.313118357939473
1097.52809050043,0.313845661780442
1101.20627611025,0.314591437416039
1106.10382596803,0.31522746765241
1109.77196514487,0.315778500733138
1113.43579870759,0.315682595639711
1117.09532665617,0.316348530143933
1120.75054899062,0.316409639416411
1124.40146571093,0.315478277075448
1128.04807681712,0.316129898663896
1131.69038230917,0.316673551777124
1135.32838218709,0.317532830945037
1140.172351069,0.317977817347092
1143.80030451395,0.319717815303093
1147.42395234476,0.319491570157195
1151.04329456145,0.320322048654712
1154.658331164,0.320553285912777
1158.26906215241,0.320047001690664
1161.8754875267,0.319955159687664
1165.47760728685,0.32091383443802
1169.07542143287,0.320457092267875
1173.86580933892,0.32094010035707
1177.45357705197,0.320303901245707
1181.03703915088,0.320618992695117
1184.61619563566,0.321019101021152
1188.19104650631,0.321324607221752
1191.76159176283,0.322046494043692
1195.32783140522,0.323067828467788
1198.88976543347,0.323715893966783
1202.44739384759,0.324183356061214
1207.18420077777,0.323942132168222
1210.73178275892,0.324356840232943
1214.27505912594,0.324323632722204
1217.81402987882,0.32476663838041
1221.34869501757,0.325251521261088
1224.87905454219,0.325202638401208
1228.40510845267,0.325568958923467
1231.92685674903,0.325472007946235
1235.44429943125,0.325370898501521
1240.12752538557,0.326087567226746
1243.63492163481,0.326262473213706
1247.13801226993,0.326045961385317
1250.63679729091,0.326575554425198
1254.13127669776,0.326046630874103
1257.62145049048,0.326672715913486
1261.10731866907,0.32696752647537
1264.58888123353,0.326482642063398
1268.06613818385,0.326271969871516
1272.6957831623,0.327228989804338
1276.16299367965,0.327403031678717
1279.62589858286,0.326857064584618
1283.08449787195,0.326568971788093
1286.5387915469,0.32676241421699
1289.98877960772,0.326653638767179
1293.43446205441,0.326852299341983
1296.87583888696,0.327305844464389
1300.31291010539,0.326764848051784
1304.88897410797,0.327579832437778
1308.31599889342,0.3277086559513
1311.73871806474,0.327192333164518
1315.15713162192,0.327271006616747
1318.57123956497,0.327617654483201
1321.98104189389,0.327399581922613
1325.38653860868,0.32767433959388
1328.78772970934,0.327578879379945
1332.18461519586,0.327555006346638
1336.70709822258,0.327837198173847
1340.09393727613,0.327535954152709
1343.47647071555,0.327405054091655
1346.85469854083,0.32754748309659
1350.22862075199,0.327158550397855
1353.59823734901,0.326796476161847
1356.9635483319,0.32749721728177
1360.32455370065,0.327015363048768
1363.68125345528,0.326827388698082
1368.15015550613,0.32778775350376
1371.49680882778,0.32656888668688
1374.8391565353,0.326709045845129
1378.17719862868,0.326881402679275
1381.51093510794,0.327015667534394
1384.84036597306,0.326531297573207
1388.16549122405,0.326093803182512
1391.48631086091,0.326209572944516
1394.80282488363,0.32594372607011
1399.21814595862,0.324499350816847
1402.52461354837,0.323811917369362
1405.82677552399,0.32275507208441
1409.12463188548,0.322895000608339
1412.41818263283,0.322518483504406
1415.70742776605,0.321304221674162
1418.99236728514,0.322265401013548
1422.2730011901,0.322024717175678
1425.54932948093,0.322120238041633
1429.91106958005,0.321770998933378
1433.1773514379,0.322687971918446
1436.43932768162,0.322535473420019
1439.6969983112,0.323284377503093
1442.95036332666,0.322930311334676
1446.19942272798,0.323596103750656
1449.44417651517,0.323949894181588
1452.68462468823,0.32376448298477
1456.99852463033,0.324576480329207
1460.22892637041,0.324217177962592
1463.45502249637,0.324147453929828
1466.67681300819,0.324764230541927
1469.89429790587,0.324890976926592
1473.10747718943,0.324931336015559
1476.31635085885,0.325125474491204
1479.52091891415,0.325392471619438
1482.72118135531,0.325236305574175
1486.98150032154,0.325365139340966
1490.17171632972,0.325479474638677
1493.35762672377,0.326026555672454
1496.53923150369,0.326255915670865
1499.71653066948,0.326426216249844
1502.88952422114,0.326476405852846
1506.05821215866,0.326121148922274
1509.22259448206,0.326620363012175
1512.38267119132,0.326489242711228
1516.58940918168,0.326705379756591
1519.73943945797,0.327441458799131
1522.88516412012,0.327147891101447
1526.02658316814,0.32678029924356
1529.16369660203,0.327201429263566
1532.29650442179,0.327771565305172
1535.42500662741,0.327682296584997
1538.54920321891,0.32795364622594
1541.66909419627,0.327547560911343
1545.82225121076,0.328011289939857
1548.93209575515,0.328067659722022
1552.0376346854,0.328282226907767
1555.13886800153,0.327941973868929
1558.23579570352,0.328520936468453
1561.32841779137,0.327656225525591
1564.4167342651,0.328109658365448
1567.50074512469,0.328153035029122
1570.58045037016,0.32819301081955
1574.68002640879,0.328566645647231
1577.74968522127,0.327190821190306
1580.81503841963,0.327740188867372
1583.87608600385,0.326823605766194
1586.93282797394,0.326673260065119
1589.9852643299,0.325825761066708
1593.03339507173,0.326323384077169
1596.07722019942,0.327180393336539
1599.11673971298,0.326153055958677
1603.16273477575,0.324753073172192
1606.19220785634,0.325338418221872
1609.21737532279,0.324481186903316
1612.23823717512,0.323698695352159
1615.25479341331,0.321735673156019
1618.26704403737,0.323236382747311
1621.27498904729,0.320997723277328
1624.27862844309,0.320912473307819
1627.27796222475,0.32006573052308
1631.27037631165,0.319385786866025
1634.25966366034,0.317374472307064
1637.2446453949,0.315972488728855
1640.22532151532,0.312742533658258
1643.20169202161,0.310402262393729
1646.17375691377,0.306812856933665
1649.1415161918,0.304629812138947
1652.10496985569,0.302608258239966
1655.06411790546,0.300879638334573
1659.00295101649,0.304090790276205
1661.95205263328,0.31007579959327
1664.89684863594,0.3249058927525
1667.83733902446,0.345062299363404
1670.77352379886,0.374284131920565
1673.70540295912,0.409866802350301
1676.63297650524,0.454745491600289
1679.55624443724,0.505249870904814
1682.4752067551,0.555389577321338
1686.36045889027,0.619589396279347
1689.26937477516,0.657406635892479
1692.17398504592,0.685723199313653
1695.07428970255,0.700407902832532
1697.97028874504,0.707456372289794
1700.8619821734,0.688156608844368
##END=
