##TITLE=Column 1
##JCAMP-DX=4.24
##DATA TYPE=INFRARED SPECTRUM
##Method:,Column 1,Built-In Reference,,,Model Name,NIR-X-XX
##Host Date-Time:,27/10/20 @ 15:0:43,9/7/19 @ 16:39:9,,,GUI Version,2.4.4
##Header Version:,1,1,,,Tiva Version,2.1.0.67
##System Temp (C):,49.44,27.52,,,DLPC Version,2.0.0
##Detector Temp (C),0,0,,,UUID,DE:67:0C:88:67:19:47:21
##Humidity (%):,14.33,73.2,,,Main Board Version,D
##Lamp PD:,2670,2274
##Shift Vector Coefficients:,-6.85384978732833,0.0551332794684546,-0.000110731550088635
##Pixel to Wavelength Coefficients:,1790.66412099084,-0.917492857141292,-0.000239200785115314
##Serial Number:,925R021,925R021
##Scan Config Name:,Column 1,SystemTest
##Scan Config Type:,Column,Column
##Start wavelength (nm):,900,900
##End wavelength (nm):,1700,1700
##Pattern Pixel Width (nm):,7.03,7.03
##Exposure (ms):,0.635,0.635
##Digital Resolution:,228,228
##NPOINTS=228
##Num Repeats:,6,30
##PGA Gain:,64,64
##Total Measurement Time in sec:,1.7951768
##XUNITS=Wavelength(nm)
##YUNITS=Absorbance(AU)
##FIRSTX=901.630473432251
##LASTX=1700.8619821734
##PEAK TABLE=X+(Y..Y)
901.630473432251,0.983196674399863
905.531115772228,0.959052352572502
909.427452498074,0.967379971626471
913.319483609787,0.966045545800256
917.207209107368,0.96677088171769
921.090628990817,0.975468143133934
924.969743260134,0.98469667833828
930.13519799724,0.981803609847968
934.004265833582,0.98094275545158
937.869028055792,0.962200147420195
941.72948466387,0.951259783142566
945.585635657816,0.946393335635801
949.43748103763,0.932521368392589
953.285020803312,0.924853959717701
957.128254954862,0.921640914627304
960.967183492279,0.914627797672182
966.07905725352,0.903614069672178
969.907939357962,0.902735001956191
973.732515848273,0.902270247295009
977.552786724452,0.898727051497211
981.368751986498,0.893927590243083
985.180411634413,0.890402579140257
988.987765668195,0.891639674160754
992.790814087846,0.887804868882606
996.589556893364,0.887565199872017
1001.64784967874,0.885720779176514
1005.43654605128,0.886538653781094
1009.22093680969,0.882267387797161
1013.00102195397,0.883691462979629
1016.77680148412,0.8847363599967
1020.54827540013,0.883439921739021
1024.31544370202,0.882082587807013
1028.07830638977,0.879949407004068
1031.83686346339,0.882861962492471
1036.8415752729,0.886281082075107
1040.59008591354,0.882060683331692
1044.33429094005,0.88079503152449
1048.07419035243,0.885475572080395
1051.80978415068,0.88263404287227
1055.5410723348,0.886044842536748
1059.26805490478,0.883956284491624
1062.99073186063,0.883484192125935
1066.70910320235,0.88628711274441
1071.66023403599,0.888481457636321
1075.36855894474,0.891084774288502
1079.07257823935,0.887864997305796
1082.77229191983,0.892768745206026
1086.46769998618,0.89227120262147
1090.1588024384,0.894451135055771
1093.84559927648,0.893904645383853
1097.52809050043,0.893690660301289
1101.20627611025,0.893434174799373
1106.10382596803,0.895548585598583
1109.77196514487,0.898340091136554
1113.43579870759,0.898753435335262
1117.09532665617,0.900295907724315
1120.75054899062,0.899364870421081
1124.40146571093,0.900348677010766
1128.04807681712,0.902584499463765
1131.69038230917,0.901238139666959
1135.32838218709,0.898873074789023
1140.172351069,0.898878678746573
1143.80030451395,0.900944640159255
1147.42395234476,0.901054488751069
1151.04329456145,0.897763813736206
1154.658331164,0.899804327350587
1158.26906215241,0.898043929050868
1161.8754875267,0.901609880228824
1165.47760728685,0.901080528736027
1169.07542143287,0.90462892328848
1173.86580933892,0.901242604271228
1177.45357705197,0.900481492629414
1181.03703915088,0.904964112654896
1184.61619563566,0.903552192100464
1188.19104650631,0.901520485871387
1191.76159176283,0.899930394613522
1195.32783140522,0.899891439655191
1198.88976543347,0.89866962692071
1202.44739384759,0.897503320079771
1207.18420077777,0.896177624174704
1210.73178275892,0.895723039410546
1214.27505912594,0.897401105932026
1217.81402987882,0.893606477818519
1221.34869501757,0.892163328464758
1224.87905454219,0.891799548584193
1228.40510845267,0.88997186207724
1231.92685674903,0.885534333607582
1235.44429943125,0.884171707100224
1240.12752538557,0.883594677053298
1243.63492163481,0.880479062752131
1247.13801226993,0.880746559527176
1250.63679729091,0.879644747633563
1254.13127669776,0.876723138983598
1257.62145049048,0.876642044595764
1261.10731866907,0.875486090002805
1264.58888123353,0.874484222596992
1268.06613818385,0.873768869393761
1272.6957831623,0.871755970490605
1276.16299367965,0.870446308682117
1279.62589858286,0.870459030654968
1283.08449787195,0.871587175483752
1286.5387915469,0.870163738143551
1289.98877960772,0.871029880307384
1293.43446205441,0.869120792097535
1296.87583888696,0.869226560780654
1300.31291010539,0.868797136193685
1304.88897410797,0.867441718511008
1308.31599889342,0.866455901176029
1311.73871806474,0.86811683463249
1315.15713162192,0.868386784516945
1318.57123956497,0.86887082671603
1321.98104189389,0.868072329382777
1325.38653860868,0.867768897278272
1328.78772970934,0.868441522386372
1332.18461519586,0.868387907917947
1336.70709822258,0.866727805015433
1340.09393727613,0.866718387349499
1343.47647071555,0.866933729101661
1346.85469854083,0.867096597915073
1350.22862075199,0.866203124147943
1353.59823734901,0.867642675815441
1356.9635483319,0.866853432466671
1360.32455370065,0.865800019246265
1363.68125345528,0.865577906607878
1368.15015550613,0.867237163479752
1371.49680882778,0.866421608518532
1374.8391565353,0.866430697265229
1378.17719862868,0.866545784537652
1381.51093510794,0.865496405735894
1384.84036597306,0.865249979753533
1388.16549122405,0.864821429865773
1391.48631086091,0.864268911441442
1394.80282488363,0.86349054348048
1399.21814595862,0.863489675994627
1402.52461354837,0.863488998396083
1405.82677552399,0.864169247210653
1409.12463188548,0.86508928042228
1412.41818263283,0.865369650518109
1415.70742776605,0.863836718957924
1418.99236728514,0.865724241833935
1422.2730011901,0.864320323256576
1425.54932948093,0.864334182325308
1429.91106958005,0.862488274530402
1433.1773514379,0.862095061377248
1436.43932768162,0.862411965495302
1439.6969983112,0.860491921665323
1442.95036332666,0.860714316709418
1446.19942272798,0.859665955398702
1449.44417651517,0.859858005921866
1452.68462468823,0.858512640039236
1456.99852463033,0.856892968461508
1460.22892637041,0.859690063200759
1463.45502249637,0.859442755581175
1466.67681300819,0.85711736202358
1469.89429790587,0.857398393828268
1473.10747718943,0.857854554066843
1476.31635085885,0.855729916918077
1479.52091891415,0.856602756810872
1482.72118135531,0.856257422369523
1486.98150032154,0.853628663798312
1490.17171632972,0.853899809193915
1493.35762672377,0.853680949332995
1496.53923150369,0.853459025877087
1499.71653066948,0.852491395570238
1502.88952422114,0.852081907192775
1506.05821215866,0.850553642117559
1509.22259448206,0.850049051005549
1512.38267119132,0.847006312423636
1516.58940918168,0.847546531611217
1519.73943945797,0.847705622943018
1522.88516412012,0.844746953105967
1526.02658316814,0.844404654665958
1529.16369660203,0.845957349450852
1532.29650442179,0.843325873004101
1535.42500662741,0.843614477399042
1538.54920321891,0.841362186001334
1541.66909419627,0.84172164666111
1545.82225121076,0.840739069161763
1548.93209575515,0.838930904353678
1552.0376346854,0.835895162210833
1555.13886800153,0.837137439010217
1558.23579570352,0.834593217927355
1561.32841779137,0.834018730220512
1564.4167342651,0.830788448661892
1567.50074512469,0.830753973827988
1570.58045037016,0.830063408087304
1574.68002640879,0.829852505883007
1577.74968522127,0.828168177813974
1580.81503841963,0.82596994399612
1583.87608600385,0.823139187849933
1586.93282797394,0.822795343941206
1589.9852643299,0.820628132975209
1593.03339507173,0.81904690938364
1596.07722019942,0.817695209361279
1599.11673971298,0.814112935668383
1603.16273477575,0.816259345123246
1606.19220785634,0.814509349469103
1609.21737532279,0.813136320959518
1612.23823717512,0.812295854228656
1615.25479341331,0.810025696842529
1618.26704403737,0.808980885812344
1621.27498904729,0.805309229624319
1624.27862844309,0.805180785521669
1627.27796222475,0.804571219987573
1631.27037631165,0.800735803703759
1634.25966366034,0.801548335579282
1637.2446453949,0.806975786259662
1640.22532151532,0.802851130437641
1643.20169202161,0.804464221502386
1646.17375691377,0.803292179936307
1649.1415161918,0.806218168133656
1652.10496985569,0.812423803121592
1655.06411790546,0.807089114931766
1659.00295101649,0.804736870281452
1661.95205263328,0.785683259555014
1664.89684863594,0.767086963645774
1667.83733902446,0.744703865609607
1670.77352379886,0.706692752666017
1673.70540295912,0.665542549132012
1676.63297650524,0.614373947696816
1679.55624443724,0.571258673729648
1682.4752067551,0.527713853417355
1686.36045889027,0.476500214642259
1689.26937477516,0.451333755224132
1692.17398504592,0.433812853954518
1695.07428970255,0.439399501323686
1697.97028874504,0.427794565395431
1700.8619821734,0.439803797473954
##END=
