##TITLE=Column 1
##JCAMP-DX=4.24
##DATA TYPE=INFRARED SPECTRUM
##Method:,Column 1,Built-In Reference,,,Model Name,NIR-X-XX
##Host Date-Time:,27/10/20 @ 15:0:9,9/7/19 @ 16:39:9,,,GUI Version,2.4.4
##Header Version:,1,1,,,Tiva Version,2.1.0.67
##System Temp (C):,49.21,27.52,,,DLPC Version,2.0.0
##Detector Temp (C),0,0,,,UUID,DE:67:0C:88:67:19:47:21
##Humidity (%):,14.43,73.2,,,Main Board Version,D
##Lamp PD:,2669,2274
##Shift Vector Coefficients:,-6.85384978732833,0.0551332794684546,-0.000110731550088635
##Pixel to Wavelength Coefficients:,1790.66412099084,-0.917492857141292,-0.000239200785115314
##Serial Number:,925R021,925R021
##Scan Config Name:,Column 1,SystemTest
##Scan Config Type:,Column,Column
##Start wavelength (nm):,900,900
##End wavelength (nm):,1700,1700
##Pattern Pixel Width (nm):,7.03,7.03
##Exposure (ms):,0.635,0.635
##Digital Resolution:,228,228
##NPOINTS=228
##Num Repeats:,6,30
##PGA Gain:,64,64
##Total Measurement Time in sec:,1.8141559
##XUNITS=Wavelength(nm)
##YUNITS=Absorbance(AU)
##FIRSTX=901.630473432251
##LASTX=1700.8619821734
##PEAK TABLE=X+(Y..Y)
901.630473432251,0.568579069419872
905.531115772228,0.568252221809521
909.427452498074,0.570472736286808
913.319483609787,0.574885337780558
917.207209107368,0.579867329369347
921.090628990817,0.588741715588184
924.969743260134,0.597099737911926
930.13519799724,0.599841815211811
934.004265833582,0.595864227207474
937.869028055792,0.586820743615568
941.72948466387,0.580213060564183
945.585635657816,0.570453335545682
949.43748103763,0.565422718658869
953.285020803312,0.563239960502828
957.128254954862,0.562647835857954
960.967183492279,0.560531008028835
966.07905725352,0.562284816410267
969.907939357962,0.562998376743395
973.732515848273,0.563230318441801
977.552786724452,0.563820161144702
981.368751986498,0.56266512476904
985.180411634413,0.564447829952911
988.987765668195,0.564166303555721
992.790814087846,0.564997360804577
996.589556893364,0.563343015805956
1001.64784967874,0.56343669558341
1005.43654605128,0.560995190201975
1009.22093680969,0.561264051384444
1013.00102195397,0.560250137518017
1016.77680148412,0.559711085149235
1020.54827540013,0.559172565476623
1024.31544370202,0.559013691915321
1028.07830638977,0.558996513817297
1031.83686346339,0.556625589997423
1036.8415752729,0.554921423703586
1040.59008591354,0.554404443907478
1044.33429094005,0.553258528098886
1048.07419035243,0.551880417729253
1051.80978415068,0.550797880945159
1055.5410723348,0.548903917901736
1059.26805490478,0.549051688949177
1062.99073186063,0.546063783217835
1066.70910320235,0.546006024919596
1071.66023403599,0.543915004275211
1075.36855894474,0.54318765236686
1079.07257823935,0.541882535786266
1082.77229191983,0.541644855770399
1086.46769998618,0.54122613469573
1090.1588024384,0.539774791637257
1093.84559927648,0.538138825753987
1097.52809050043,0.539825140897038
1101.20627611025,0.537802353712755
1106.10382596803,0.53746503051284
1109.77196514487,0.536992396592153
1113.43579870759,0.536723018845044
1117.09532665617,0.536574997241271
1120.75054899062,0.537178756621573
1124.40146571093,0.536862954929738
1128.04807681712,0.538846693161271
1131.69038230917,0.537915075751517
1135.32838218709,0.537083910369462
1140.172351069,0.535556119259867
1143.80030451395,0.535321200463392
1147.42395234476,0.534063483683215
1151.04329456145,0.534210418737919
1154.658331164,0.534306726021883
1158.26906215241,0.533521580547405
1161.8754875267,0.532903091743544
1165.47760728685,0.532042044047398
1169.07542143287,0.532122108536376
1173.86580933892,0.53252110563144
1177.45357705197,0.53257378917196
1181.03703915088,0.531325663679998
1184.61619563566,0.531084615897052
1188.19104650631,0.529220433658494
1191.76159176283,0.528024747136364
1195.32783140522,0.526774717670508
1198.88976543347,0.525751623839964
1202.44739384759,0.52469537382455
1207.18420077777,0.524271771112016
1210.73178275892,0.522746890426545
1214.27505912594,0.522940243130359
1217.81402987882,0.521755089971763
1221.34869501757,0.521597424582269
1224.87905454219,0.52217859745491
1228.40510845267,0.521400051788678
1231.92685674903,0.521363459461642
1235.44429943125,0.52121104224364
1240.12752538557,0.520907665964187
1243.63492163481,0.520781681805837
1247.13801226993,0.520816314262236
1250.63679729091,0.5205805085708
1254.13127669776,0.520709685682426
1257.62145049048,0.520610681942812
1261.10731866907,0.520501882389955
1264.58888123353,0.521603855118938
1268.06613818385,0.522456055792528
1272.6957831623,0.521362902839025
1276.16299367965,0.522584708384253
1279.62589858286,0.522367446822369
1283.08449787195,0.522657975964466
1286.5387915469,0.523107047815109
1289.98877960772,0.523142759739979
1293.43446205441,0.523458828412087
1296.87583888696,0.523923260943881
1300.31291010539,0.524251145118821
1304.88897410797,0.523780102025822
1308.31599889342,0.524319907354693
1311.73871806474,0.523608756495032
1315.15713162192,0.523892976164688
1318.57123956497,0.523322170324748
1321.98104189389,0.524150012986732
1325.38653860868,0.524709863198888
1328.78772970934,0.524642970808827
1332.18461519586,0.524758520280802
1336.70709822258,0.52390595627022
1340.09393727613,0.524491707402981
1343.47647071555,0.524939338246684
1346.85469854083,0.52505088224249
1350.22862075199,0.524929253223704
1353.59823734901,0.525048455708921
1356.9635483319,0.52467329258181
1360.32455370065,0.524818840443983
1363.68125345528,0.524843407603847
1368.15015550613,0.524919405481103
1371.49680882778,0.524810227563299
1374.8391565353,0.52539567839575
1378.17719862868,0.52481644396071
1381.51093510794,0.52517092260995
1384.84036597306,0.525262073027961
1388.16549122405,0.525047475164975
1391.48631086091,0.525961210761889
1394.80282488363,0.526740929315957
1399.21814595862,0.528023595251648
1402.52461354837,0.528544851206836
1405.82677552399,0.529341856573052
1409.12463188548,0.528971002748992
1412.41818263283,0.530249190275599
1415.70742776605,0.531207575649605
1418.99236728514,0.530087732551319
1422.2730011901,0.531179815452831
1425.54932948093,0.5302016033092
1429.91106958005,0.529815370197362
1433.1773514379,0.530387425040417
1436.43932768162,0.529098059928908
1439.6969983112,0.529485576932522
1442.95036332666,0.528320502113092
1446.19942272798,0.527806040072211
1449.44417651517,0.527398360288989
1452.68462468823,0.527327844831396
1456.99852463033,0.526515390850736
1460.22892637041,0.526823714744042
1463.45502249637,0.526458592304272
1466.67681300819,0.526404593880905
1469.89429790587,0.525657537436443
1473.10747718943,0.525044097795727
1476.31635085885,0.526433264699238
1479.52091891415,0.525194874296343
1482.72118135531,0.525544012572071
1486.98150032154,0.524861438968131
1490.17171632972,0.52485574116915
1493.35762672377,0.522939894178302
1496.53923150369,0.523814637968696
1499.71653066948,0.524091764676981
1502.88952422114,0.523409813987297
1506.05821215866,0.522067161549836
1509.22259448206,0.522621126598067
1512.38267119132,0.522954377117857
1516.58940918168,0.521403140091041
1519.73943945797,0.521661307763919
1522.88516412012,0.521715514914295
1526.02658316814,0.522032949163005
1529.16369660203,0.52146756500201
1532.29650442179,0.521926699874881
1535.42500662741,0.522022082273797
1538.54920321891,0.521607823997618
1541.66909419627,0.521436723286617
1545.82225121076,0.520613619970736
1548.93209575515,0.521067060333709
1552.0376346854,0.521375325546091
1555.13886800153,0.520976433623197
1558.23579570352,0.520634813345705
1561.32841779137,0.521335139045681
1564.4167342651,0.522350397891168
1567.50074512469,0.521961764740975
1570.58045037016,0.521781348658776
1574.68002640879,0.523069983009681
1577.74968522127,0.523648238487128
1580.81503841963,0.523328073110315
1583.87608600385,0.524403286959235
1586.93282797394,0.525996297582934
1589.9852643299,0.525502082511932
1593.03339507173,0.526935088489018
1596.07722019942,0.528031717257245
1599.11673971298,0.528595604959931
1603.16273477575,0.529338122400358
1606.19220785634,0.531016653585809
1609.21737532279,0.53081014376106
1612.23823717512,0.53179427466125
1615.25479341331,0.532024658401337
1618.26704403737,0.534515018437609
1621.27498904729,0.534343253420233
1624.27862844309,0.534996881745352
1627.27796222475,0.537254931473647
1631.27037631165,0.537207404126619
1634.25966366034,0.538701836746639
1637.2446453949,0.541059605643719
1640.22532151532,0.546222918210986
1643.20169202161,0.547065709556499
1646.17375691377,0.552619441011488
1649.1415161918,0.554995389925341
1652.10496985569,0.560027136409842
1655.06411790546,0.561278726380804
1659.00295101649,0.555833532875159
1661.95205263328,0.546019480858587
1664.89684863594,0.526153492254778
1667.83733902446,0.498653323003992
1670.77352379886,0.46469565434399
1673.70540295912,0.41839586678752
1676.63297650524,0.373311786224954
1679.55624443724,0.328183045512311
1682.4752067551,0.282862069538995
1686.36045889027,0.236973430163218
1689.26937477516,0.205028501862782
1692.17398504592,0.194204435693169
1695.07428970255,0.182075231208534
1697.97028874504,0.183497557736653
1700.8619821734,0.191261125096704
##END=
