##TITLE=Column 1
##JCAMP-DX=4.24
##DATA TYPE=INFRARED SPECTRUM
##Method:,Column 1,Built-In Reference,,,Model Name,NIR-X-XX
##Host Date-Time:,27/10/20 @ 14:59:53,9/7/19 @ 16:39:9,,,GUI Version,2.4.4
##Header Version:,1,1,,,Tiva Version,2.1.0.67
##System Temp (C):,49.11,27.52,,,DLPC Version,2.0.0
##Detector Temp (C),0,0,,,UUID,DE:67:0C:88:67:19:47:21
##Humidity (%):,14.52,73.2,,,Main Board Version,D
##Lamp PD:,2669,2274
##Shift Vector Coefficients:,-6.85384978732833,0.0551332794684546,-0.000110731550088635
##Pixel to Wavelength Coefficients:,1790.66412099084,-0.917492857141292,-0.000239200785115314
##Serial Number:,925R021,925R021
##Scan Config Name:,Column 1,SystemTest
##Scan Config Type:,Column,Column
##Start wavelength (nm):,900,900
##End wavelength (nm):,1700,1700
##Pattern Pixel Width (nm):,7.03,7.03
##Exposure (ms):,0.635,0.635
##Digital Resolution:,228,228
##NPOINTS=228
##Num Repeats:,6,30
##PGA Gain:,64,64
##Total Measurement Time in sec:,1.7911808
##XUNITS=Wavelength(nm)
##YUNITS=Absorbance(AU)
##FIRSTX=901.630473432251
##LASTX=1700.8619821734
##PEAK TABLE=X+(Y..Y)
901.630473432251,0.779706130104479
905.531115772228,0.770253923197654
909.427452498074,0.777040661437512
913.319483609787,0.775738802923739
917.207209107368,0.784421039006902
921.090628990817,0.797297692931498
924.969743260134,0.802953782917418
930.13519799724,0.804191731040548
934.004265833582,0.802133123114173
937.869028055792,0.794063663624883
941.72948466387,0.786267320936357
945.585635657816,0.781228592163116
949.43748103763,0.777227650278466
953.285020803312,0.776908059273037
957.128254954862,0.776287094708471
960.967183492279,0.775657452261751
966.07905725352,0.774893154697766
969.907939357962,0.773911686632643
973.732515848273,0.777247583718736
977.552786724452,0.77668585104881
981.368751986498,0.778357832005912
985.180411634413,0.778564450475253
988.987765668195,0.777628058024493
992.790814087846,0.777962685530363
996.589556893364,0.776935500496822
1001.64784967874,0.778356604438626
1005.43654605128,0.776536624309721
1009.22093680969,0.776388206589446
1013.00102195397,0.775175272532678
1016.77680148412,0.77678732669262
1020.54827540013,0.775916679569878
1024.31544370202,0.77394581215253
1028.07830638977,0.772074444852198
1031.83686346339,0.774002622181436
1036.8415752729,0.772424663231813
1040.59008591354,0.773165960567633
1044.33429094005,0.772563736506668
1048.07419035243,0.772744214656833
1051.80978415068,0.770469773410886
1055.5410723348,0.770900262490722
1059.26805490478,0.769030656002598
1062.99073186063,0.77198700432155
1066.70910320235,0.770859296592535
1071.66023403599,0.7709817685387
1075.36855894474,0.769340981173803
1079.07257823935,0.770141312908479
1082.77229191983,0.768240306791452
1086.46769998618,0.7686814853422
1090.1588024384,0.769898136640258
1093.84559927648,0.768648069999488
1097.52809050043,0.767211432006798
1101.20627611025,0.764437929448963
1106.10382596803,0.765854383518278
1109.77196514487,0.765726128861787
1113.43579870759,0.762778979410302
1117.09532665617,0.765813586114539
1120.75054899062,0.764207416503316
1124.40146571093,0.76229325573566
1128.04807681712,0.762844394296819
1131.69038230917,0.762234139354728
1135.32838218709,0.759400142523418
1140.172351069,0.759561177854731
1143.80030451395,0.758286259747174
1147.42395234476,0.758866229299872
1151.04329456145,0.756919364207284
1154.658331164,0.755429720605908
1158.26906215241,0.755310397422566
1161.8754875267,0.754381276479304
1165.47760728685,0.754413366197326
1169.07542143287,0.753711456427748
1173.86580933892,0.755064039179063
1177.45357705197,0.753190312036888
1181.03703915088,0.754018924497027
1184.61619563566,0.751272966568221
1188.19104650631,0.752777275234242
1191.76159176283,0.748983948869257
1195.32783140522,0.749512816662551
1198.88976543347,0.750059102967306
1202.44739384759,0.749398802795172
1207.18420077777,0.748430037819697
1210.73178275892,0.748404736215216
1214.27505912594,0.746612358182394
1217.81402987882,0.747498883471643
1221.34869501757,0.747394570396145
1224.87905454219,0.745392294746843
1228.40510845267,0.747652361760137
1231.92685674903,0.745768914681944
1235.44429943125,0.74565406557605
1240.12752538557,0.74523825330871
1243.63492163481,0.746167861456114
1247.13801226993,0.748590307548268
1250.63679729091,0.746766751120043
1254.13127669776,0.747950208685693
1257.62145049048,0.747293304932405
1261.10731866907,0.746767196579506
1264.58888123353,0.745812441575228
1268.06613818385,0.747550323021051
1272.6957831623,0.747614780364623
1276.16299367965,0.746084483764689
1279.62589858286,0.746628666559035
1283.08449787195,0.747267195233039
1286.5387915469,0.747118690205952
1289.98877960772,0.745611528798275
1293.43446205441,0.746795302009961
1296.87583888696,0.746636686719969
1300.31291010539,0.746783330151527
1304.88897410797,0.745729307527308
1308.31599889342,0.747625815715669
1311.73871806474,0.746440316344057
1315.15713162192,0.745948068417613
1318.57123956497,0.745731551892418
1321.98104189389,0.745762332206189
1325.38653860868,0.745611262080055
1328.78772970934,0.745365336594864
1332.18461519586,0.744758184018122
1336.70709822258,0.744299582880745
1340.09393727613,0.744688570430601
1343.47647071555,0.745150165470848
1346.85469854083,0.744957124549337
1350.22862075199,0.744756556794901
1353.59823734901,0.74500611104971
1356.9635483319,0.744455324897191
1360.32455370065,0.744235104186467
1363.68125345528,0.744379441594431
1368.15015550613,0.743789616142014
1371.49680882778,0.743845094866437
1374.8391565353,0.743667423062788
1378.17719862868,0.743402307155997
1381.51093510794,0.744496691794877
1384.84036597306,0.743203704128515
1388.16549122405,0.744384352840196
1391.48631086091,0.744318394654254
1394.80282488363,0.745609861762789
1399.21814595862,0.744928572117504
1402.52461354837,0.745966835851075
1405.82677552399,0.747673946783665
1409.12463188548,0.74804865322592
1412.41818263283,0.747184792227003
1415.70742776605,0.747307855534454
1418.99236728514,0.748385654213137
1422.2730011901,0.748013231837234
1425.54932948093,0.747308156216209
1429.91106958005,0.747279435753723
1433.1773514379,0.748415367031411
1436.43932768162,0.74652627308948
1439.6969983112,0.746677851609813
1442.95036332666,0.745711111941779
1446.19942272798,0.745345357258581
1449.44417651517,0.745172606816868
1452.68462468823,0.744688816711862
1456.99852463033,0.744471989693025
1460.22892637041,0.746390963160745
1463.45502249637,0.74464208753535
1466.67681300819,0.743198104038589
1469.89429790587,0.744409851884767
1473.10747718943,0.743085020663538
1476.31635085885,0.744518462411358
1479.52091891415,0.74345554493213
1482.72118135531,0.743271456021353
1486.98150032154,0.742952126033134
1490.17171632972,0.742554627034
1493.35762672377,0.742212299888856
1496.53923150369,0.741693530016485
1499.71653066948,0.741742481991898
1502.88952422114,0.742150057252166
1506.05821215866,0.739911077413205
1509.22259448206,0.740238806437685
1512.38267119132,0.740845939162013
1516.58940918168,0.740222487341603
1519.73943945797,0.740913536510743
1522.88516412012,0.739488007538163
1526.02658316814,0.741038340173013
1529.16369660203,0.740011411005354
1532.29650442179,0.740747761763372
1535.42500662741,0.739749444867712
1538.54920321891,0.739434741277796
1541.66909419627,0.739037272956132
1545.82225121076,0.739698002191557
1548.93209575515,0.736180825103854
1552.0376346854,0.737141840206194
1555.13886800153,0.737568424524742
1558.23579570352,0.737061178406197
1561.32841779137,0.736067239067967
1564.4167342651,0.733630784846171
1567.50074512469,0.735348590901509
1570.58045037016,0.735408199128545
1574.68002640879,0.734879684150254
1577.74968522127,0.735070804391817
1580.81503841963,0.732826442172299
1583.87608600385,0.734685151239445
1586.93282797394,0.734144131821615
1589.9852643299,0.735949408179051
1593.03339507173,0.735307784409218
1596.07722019942,0.733389435628719
1599.11673971298,0.734680295660103
1603.16273477575,0.736312084863775
1606.19220785634,0.732993485003996
1609.21737532279,0.736351923146253
1612.23823717512,0.734201628240184
1615.25479341331,0.734385571914535
1618.26704403737,0.734541380594319
1621.27498904729,0.736695989474708
1624.27862844309,0.734965659560607
1627.27796222475,0.737158451685698
1631.27037631165,0.736465494663722
1634.25966366034,0.736177521941851
1637.2446453949,0.73672286131871
1640.22532151532,0.73872377860212
1643.20169202161,0.743244140167492
1646.17375691377,0.743297184812079
1649.1415161918,0.744217098680231
1652.10496985569,0.745515007846622
1655.06411790546,0.742477650816306
1659.00295101649,0.73814711797266
1661.95205263328,0.727775569468002
1664.89684863594,0.71265436021462
1667.83733902446,0.683624938050569
1670.77352379886,0.65147417815511
1673.70540295912,0.613279668393138
1676.63297650524,0.568204545109013
1679.55624443724,0.520754849065789
1682.4752067551,0.48282031066754
1686.36045889027,0.440673105206669
1689.26937477516,0.421354163758574
1692.17398504592,0.406586757428447
1695.07428970255,0.397944957022835
1697.97028874504,0.390934647775772
1700.8619821734,0.399321590227427
##END=
