##TITLE=Column 1
##JCAMP-DX=4.24
##DATA TYPE=INFRARED SPECTRUM
##Method:,Column 1,Built-In Reference,,,Model Name,NIR-X-XX
##Host Date-Time:,27/10/20 @ 15:0:53,9/7/19 @ 16:39:9,,,GUI Version,2.4.4
##Header Version:,1,1,,,Tiva Version,2.1.0.67
##System Temp (C):,49.51,27.52,,,DLPC Version,2.0.0
##Detector Temp (C),0,0,,,UUID,DE:67:0C:88:67:19:47:21
##Humidity (%):,14.23,73.2,,,Main Board Version,D
##Lamp PD:,2671,2274
##Shift Vector Coefficients:,-6.85384978732833,0.0551332794684546,-0.000110731550088635
##Pixel to Wavelength Coefficients:,1790.66412099084,-0.917492857141292,-0.000239200785115314
##Serial Number:,925R021,925R021
##Scan Config Name:,Column 1,SystemTest
##Scan Config Type:,Column,Column
##Start wavelength (nm):,900,900
##End wavelength (nm):,1700,1700
##Pattern Pixel Width (nm):,7.03,7.03
##Exposure (ms):,0.635,0.635
##Digital Resolution:,228,228
##NPOINTS=228
##Num Repeats:,6,30
##PGA Gain:,64,64
##Total Measurement Time in sec:,1.7951813
##XUNITS=Wavelength(nm)
##YUNITS=Reflectance(AU)
##FIRSTX=901.630473432251
##LASTX=1700.8619821734
##PEAK TABLE=X+(Y..Y)
901.630473432251,0.157395893509316
905.531115772228,0.15589004055881
909.427452498074,0.153956220504067
913.319483609787,0.153079856697099
917.207209107368,0.152277775449478
921.090628990817,0.149264540618835
924.969743260134,0.14691259021652
930.13519799724,0.14499672243281
934.004265833582,0.149481844039588
937.869028055792,0.151766428262852
941.72948466387,0.155782223309558
945.585635657816,0.157293469032445
949.43748103763,0.158790767307864
953.285020803312,0.162028719384924
957.128254954862,0.163314430905311
960.967183492279,0.164302822162849
966.07905725352,0.166689218206741
969.907939357962,0.167258823227733
973.732515848273,0.167088509553013
977.552786724452,0.167639017459258
981.368751986498,0.167601581692306
985.180411634413,0.169715786714096
988.987765668195,0.169293542676438
992.790814087846,0.169228096732967
996.589556893364,0.170410103604089
1001.64784967874,0.170808711801452
1005.43654605128,0.169958922604058
1009.22093680969,0.170626509352628
1013.00102195397,0.171270809960793
1016.77680148412,0.171838194253928
1020.54827540013,0.171874446158972
1024.31544370202,0.172578867449704
1028.07830638977,0.172563855946859
1031.83686346339,0.17293149228692
1036.8415752729,0.171988276664992
1040.59008591354,0.173483827171117
1044.33429094005,0.173727745296949
1048.07419035243,0.173920893618046
1051.80978415068,0.174168897342258
1055.5410723348,0.173991548027631
1059.26805490478,0.173995739870061
1062.99073186063,0.173970389982632
1066.70910320235,0.173166824278168
1071.66023403599,0.173551187877668
1075.36855894474,0.17305943933028
1079.07257823935,0.173402194340707
1082.77229191983,0.173337919819876
1086.46769998618,0.172976868578762
1090.1588024384,0.173779891990829
1093.84559927648,0.17278645309531
1097.52809050043,0.172731527319506
1101.20627611025,0.172889434028386
1106.10382596803,0.171813846178742
1109.77196514487,0.172003299120235
1113.43579870759,0.172081063768893
1117.09532665617,0.172194725234125
1120.75054899062,0.171936917998766
1124.40146571093,0.171429395503215
1128.04807681712,0.171588905204621
1131.69038230917,0.170656752107609
1135.32838218709,0.170881435494297
1140.172351069,0.171031686439405
1143.80030451395,0.171747480873794
1147.42395234476,0.17047179671252
1151.04329456145,0.17118514239791
1154.658331164,0.170985670143713
1158.26906215241,0.170163376068991
1161.8754875267,0.171003535955664
1165.47760728685,0.170068698752946
1169.07542143287,0.170498366957916
1173.86580933892,0.170654208547654
1177.45357705197,0.169815613539046
1181.03703915088,0.170463283352557
1184.61619563566,0.170784707026501
1188.19104650631,0.170121638792283
1191.76159176283,0.170264420047591
1195.32783140522,0.170952043675523
1198.88976543347,0.170616396178066
1202.44739384759,0.172138292467713
1207.18420077777,0.17190417961592
1210.73178275892,0.171839429155193
1214.27505912594,0.172615036601198
1217.81402987882,0.172650556969868
1221.34869501757,0.172761406757208
1224.87905454219,0.17383913628458
1228.40510845267,0.173763393464832
1231.92685674903,0.174270860868799
1235.44429943125,0.174435121067542
1240.12752538557,0.174594454554251
1243.63492163481,0.174931120958091
1247.13801226993,0.175469257550393
1250.63679729091,0.175932722737144
1254.13127669776,0.176485491946673
1257.62145049048,0.176018207241246
1261.10731866907,0.176798347761128
1264.58888123353,0.176388476302819
1268.06613818385,0.176606620188246
1272.6957831623,0.177349967133327
1276.16299367965,0.177507667777618
1279.62589858286,0.177385110608862
1283.08449787195,0.177028765613719
1286.5387915469,0.17693818776196
1289.98877960772,0.177404436079975
1293.43446205441,0.177164047521682
1296.87583888696,0.177485349242384
1300.31291010539,0.177714261695599
1304.88897410797,0.177349966751454
1308.31599889342,0.177571967955489
1311.73871806474,0.177328035113691
1315.15713162192,0.177568397253739
1318.57123956497,0.177629628670736
1321.98104189389,0.17725627988691
1325.38653860868,0.17752455409911
1328.78772970934,0.177262070079122
1332.18461519586,0.176978121550389
1336.70709822258,0.177105831533477
1340.09393727613,0.177218008993879
1343.47647071555,0.176925652526008
1346.85469854083,0.177247672040016
1350.22862075199,0.176970236936611
1353.59823734901,0.176651356094846
1356.9635483319,0.177379636708378
1360.32455370065,0.177350089804739
1363.68125345528,0.177149774942936
1368.15015550613,0.176879679334423
1371.49680882778,0.176757912423461
1374.8391565353,0.176846116423942
1378.17719862868,0.176603132387707
1381.51093510794,0.177264153162916
1384.84036597306,0.177026898450793
1388.16549122405,0.177214546286528
1391.48631086091,0.176639077043098
1394.80282488363,0.176718653277392
1399.21814595862,0.175938001207582
1402.52461354837,0.176300745016134
1405.82677552399,0.175649077848849
1409.12463188548,0.175676850076187
1412.41818263283,0.175578429652485
1415.70742776605,0.17533874945597
1418.99236728514,0.175428638619646
1422.2730011901,0.175080962546653
1425.54932948093,0.175188938646323
1429.91106958005,0.17579204654772
1433.1773514379,0.175374592644574
1436.43932768162,0.176552789160358
1439.6969983112,0.176217729637636
1442.95036332666,0.176916311087527
1446.19942272798,0.176612613503643
1449.44417651517,0.176363048851135
1452.68462468823,0.176962763244189
1456.99852463033,0.176793998805485
1460.22892637041,0.176639656739287
1463.45502249637,0.176972625981447
1466.67681300819,0.176916626260274
1469.89429790587,0.177299836003271
1473.10747718943,0.177763261427914
1476.31635085885,0.177679337166551
1479.52091891415,0.177860014209016
1482.72118135531,0.177707817101369
1486.98150032154,0.178011972776728
1490.17171632972,0.178167341381058
1493.35762672377,0.178551187632951
1496.53923150369,0.17859180363606
1499.71653066948,0.178247480403136
1502.88952422114,0.178936834307711
1506.05821215866,0.179276551908008
1509.22259448206,0.179101370037191
1512.38267119132,0.179186657308322
1516.58940918168,0.178912561310599
1519.73943945797,0.180132056060856
1522.88516412012,0.179770088383109
1526.02658316814,0.180057649371855
1529.16369660203,0.180029002476314
1532.29650442179,0.18066965545136
1535.42500662741,0.179810449324382
1538.54920321891,0.180190570147252
1541.66909419627,0.18040297222759
1545.82225121076,0.181397290628529
1548.93209575515,0.180935215418846
1552.0376346854,0.181246301890318
1555.13886800153,0.181589776348335
1558.23579570352,0.18169167644273
1561.32841779137,0.181952069317257
1564.4167342651,0.182132004517353
1567.50074512469,0.181735012165354
1570.58045037016,0.182937445591344
1574.68002640879,0.181538088655461
1577.74968522127,0.183019369532498
1580.81503841963,0.1832607057226
1583.87608600385,0.182461848727783
1586.93282797394,0.183751347386903
1589.9852643299,0.183947627079016
1593.03339507173,0.182916757529219
1596.07722019942,0.183344663333199
1599.11673971298,0.183737895244348
1603.16273477575,0.184253080658605
1606.19220785634,0.184572264383572
1609.21737532279,0.184534210973109
1612.23823717512,0.183688425061648
1615.25479341331,0.185525089114341
1618.26704403737,0.185544816577061
1621.27498904729,0.184359779820744
1624.27862844309,0.185425625676547
1627.27796222475,0.185433581493395
1631.27037631165,0.185858725936385
1634.25966366034,0.185089715905038
1637.2446453949,0.185340670562206
1640.22532151532,0.183873595495963
1643.20169202161,0.182575599176409
1646.17375691377,0.183764094303705
1649.1415161918,0.182448106985277
1652.10496985569,0.182652744428419
1655.06411790546,0.18447879793661
1659.00295101649,0.186978304434957
1661.95205263328,0.191472545757072
1664.89684863594,0.198355233753464
1667.83733902446,0.210424941509331
1670.77352379886,0.228177054488135
1673.70540295912,0.251116950463857
1676.63297650524,0.278014599014282
1679.55624443724,0.308900874022223
1682.4752067551,0.34019125219261
1686.36045889027,0.385284574731861
1689.26937477516,0.399570050160815
1692.17398504592,0.411379323792068
1695.07428970255,0.422350340678623
1697.97028874504,0.424219989423585
1700.8619821734,0.415770828243342
##END=
