##TITLE=Column 1
##JCAMP-DX=4.24
##DATA TYPE=INFRARED SPECTRUM
##Method:,Column 1,Built-In Reference,,,Model Name,NIR-X-XX
##Host Date-Time:,27/10/20 @ 15:0:50,9/7/19 @ 16:39:9,,,GUI Version,2.4.4
##Header Version:,1,1,,,Tiva Version,2.1.0.67
##System Temp (C):,49.48,27.52,,,DLPC Version,2.0.0
##Detector Temp (C),0,0,,,UUID,DE:67:0C:88:67:19:47:21
##Humidity (%):,14.33,73.2,,,Main Board Version,D
##Lamp PD:,2671,2274
##Shift Vector Coefficients:,-6.85384978732833,0.0551332794684546,-0.000110731550088635
##Pixel to Wavelength Coefficients:,1790.66412099084,-0.917492857141292,-0.000239200785115314
##Serial Number:,925R021,925R021
##Scan Config Name:,Column 1,SystemTest
##Scan Config Type:,Column,Column
##Start wavelength (nm):,900,900
##End wavelength (nm):,1700,1700
##Pattern Pixel Width (nm):,7.03,7.03
##Exposure (ms):,0.635,0.635
##Digital Resolution:,228,228
##NPOINTS=228
##Num Repeats:,6,30
##PGA Gain:,64,64
##Total Measurement Time in sec:,1.8231318
##XUNITS=Wavelength(nm)
##YUNITS=Absorbance(AU)
##FIRSTX=901.630473432251
##LASTX=1700.8619821734
##PEAK TABLE=X+(Y..Y)
901.630473432251,0.942272841126471
905.531115772228,0.920981881506373
909.427452498074,0.936449207075921
913.319483609787,0.934453617115335
917.207209107368,0.944639229116757
921.090628990817,0.954337419709889
924.969743260134,0.959189613112538
930.13519799724,0.976651169670107
934.004265833582,0.974231453504512
937.869028055792,0.962837573846449
941.72948466387,0.956403945240893
945.585635657816,0.9549759060529
949.43748103763,0.950413472262563
953.285020803312,0.950637342044681
957.128254954862,0.950433059406952
960.967183492279,0.950944911550276
966.07905725352,0.951018649257143
969.907939357962,0.953679862841959
973.732515848273,0.956417563303498
977.552786724452,0.956422905412872
981.368751986498,0.956440042868066
985.180411634413,0.955011152666103
988.987765668195,0.952817797762482
992.790814087846,0.956175974772705
996.589556893364,0.958173335171729
1001.64784967874,0.956309904824035
1005.43654605128,0.955802642277827
1009.22093680969,0.955067649894671
1013.00102195397,0.954019039911088
1016.77680148412,0.954555893637671
1020.54827540013,0.95294315520733
1024.31544370202,0.948717614320871
1028.07830638977,0.952509296702491
1031.83686346339,0.948120186975716
1036.8415752729,0.947543504418951
1040.59008591354,0.948064304880404
1044.33429094005,0.950235988187841
1048.07419035243,0.945130953882116
1051.80978415068,0.946215128722117
1055.5410723348,0.943113701082611
1059.26805490478,0.936719878818552
1062.99073186063,0.939795729479739
1066.70910320235,0.938872118898643
1071.66023403599,0.934797298684153
1075.36855894474,0.93926704883514
1079.07257823935,0.934349716267878
1082.77229191983,0.931033889613555
1086.46769998618,0.932302059430632
1090.1588024384,0.927155004956535
1093.84559927648,0.925164621813317
1097.52809050043,0.924546353520152
1101.20627611025,0.919189920923292
1106.10382596803,0.920426035421127
1109.77196514487,0.91973887206928
1113.43579870759,0.917718483905624
1117.09532665617,0.91829403415405
1120.75054899062,0.916179180315512
1124.40146571093,0.914898431686099
1128.04807681712,0.915337692554161
1131.69038230917,0.910447005655626
1135.32838218709,0.913854551911137
1140.172351069,0.911779685956264
1143.80030451395,0.91112789615984
1147.42395234476,0.907950474779563
1151.04329456145,0.910341533384045
1154.658331164,0.910951187573214
1158.26906215241,0.908872923926504
1161.8754875267,0.905352510047635
1165.47760728685,0.906351736000909
1169.07542143287,0.909283995215538
1173.86580933892,0.908382303401795
1177.45357705197,0.906363858012378
1181.03703915088,0.91075785281013
1184.61619563566,0.906934616628422
1188.19104650631,0.907743823243375
1191.76159176283,0.910051101628586
1195.32783140522,0.906922873183105
1198.88976543347,0.908213978721655
1202.44739384759,0.909121383320012
1207.18420077777,0.908702974783182
1210.73178275892,0.910466454025364
1214.27505912594,0.909105212217102
1217.81402987882,0.910268181633042
1221.34869501757,0.90802580277404
1224.87905454219,0.912229667049442
1228.40510845267,0.910646335100145
1231.92685674903,0.910791128821806
1235.44429943125,0.911345532111594
1240.12752538557,0.910620175442136
1243.63492163481,0.910448113835439
1247.13801226993,0.910217796356307
1250.63679729091,0.911640900243446
1254.13127669776,0.910056763790734
1257.62145049048,0.90937058311781
1261.10731866907,0.910231083788449
1264.58888123353,0.910743713883289
1268.06613818385,0.911906494517773
1272.6957831623,0.911768349853623
1276.16299367965,0.911367321754965
1279.62589858286,0.912039376583083
1283.08449787195,0.912115955405341
1286.5387915469,0.910671408632982
1289.98877960772,0.910368584019829
1293.43446205441,0.911259797929844
1296.87583888696,0.912088109919461
1300.31291010539,0.911885891848485
1304.88897410797,0.911342044343651
1308.31599889342,0.912059536267389
1311.73871806474,0.911475407902009
1315.15713162192,0.910444041818631
1318.57123956497,0.911816356614207
1321.98104189389,0.91027998765329
1325.38653860868,0.909188891688436
1328.78772970934,0.910977785084681
1332.18461519586,0.90862993175499
1336.70709822258,0.908380503315867
1340.09393727613,0.911832318295322
1343.47647071555,0.909220151091871
1346.85469854083,0.909739102598306
1350.22862075199,0.909030300690767
1353.59823734901,0.908246268530072
1356.9635483319,0.908324199487103
1360.32455370065,0.908074844387847
1363.68125345528,0.908778456919637
1368.15015550613,0.90741832632457
1371.49680882778,0.907327498529007
1374.8391565353,0.908612923532871
1378.17719862868,0.909053284435433
1381.51093510794,0.906716710786348
1384.84036597306,0.906442649191588
1388.16549122405,0.906059582928167
1391.48631086091,0.907223547039032
1394.80282488363,0.907216794793553
1399.21814595862,0.909249705628362
1402.52461354837,0.908918818593862
1405.82677552399,0.910335779691723
1409.12463188548,0.912220892802606
1412.41818263283,0.912396037377872
1415.70742776605,0.912627072303594
1418.99236728514,0.911906153336618
1422.2730011901,0.912566101476272
1425.54932948093,0.910728605016475
1429.91106958005,0.91264184034587
1433.1773514379,0.910174733364408
1436.43932768162,0.910972991775233
1439.6969983112,0.910262132053268
1442.95036332666,0.910063756787653
1446.19942272798,0.910431699638192
1449.44417651517,0.90959254300311
1452.68462468823,0.908345983353711
1456.99852463033,0.911453212239818
1460.22892637041,0.909328076671077
1463.45502249637,0.909472234895622
1466.67681300819,0.9085071654709
1469.89429790587,0.908025171638686
1473.10747718943,0.907591777750893
1476.31635085885,0.908890382393862
1479.52091891415,0.908143215400085
1482.72118135531,0.907498638617993
1486.98150032154,0.907000402471027
1490.17171632972,0.908488002172418
1493.35762672377,0.907529014460355
1496.53923150369,0.907158511854754
1499.71653066948,0.905849211297674
1502.88952422114,0.907359808423734
1506.05821215866,0.905773716794585
1509.22259448206,0.906680306385232
1512.38267119132,0.904507836614008
1516.58940918168,0.905731269029388
1519.73943945797,0.904022216031727
1522.88516412012,0.906490111939305
1526.02658316814,0.905234254250846
1529.16369660203,0.904465699400377
1532.29650442179,0.904253259981493
1535.42500662741,0.904020073998932
1538.54920321891,0.903737672936452
1541.66909419627,0.904151710828734
1545.82225121076,0.903284514243465
1548.93209575515,0.903686489377736
1552.0376346854,0.903375692657756
1555.13886800153,0.904644404734538
1558.23579570352,0.904317586840397
1561.32841779137,0.903357196629151
1564.4167342651,0.904509767109035
1567.50074512469,0.903681233494827
1570.58045037016,0.902343200590954
1574.68002640879,0.905805826817449
1577.74968522127,0.904931214649662
1580.81503841963,0.90693742657475
1583.87608600385,0.906042532890484
1586.93282797394,0.908725617543491
1589.9852643299,0.903765812072533
1593.03339507173,0.907551952381009
1596.07722019942,0.906899417277196
1599.11673971298,0.907539284420564
1603.16273477575,0.91158032180197
1606.19220785634,0.911757611455063
1609.21737532279,0.911664976087316
1612.23823717512,0.912708772342162
1615.25479341331,0.913000327542972
1618.26704403737,0.910020381512666
1621.27498904729,0.916158670130305
1624.27862844309,0.914092155938951
1627.27796222475,0.918918504565262
1631.27037631165,0.913636220053695
1634.25966366034,0.916175227084436
1637.2446453949,0.918194776009494
1640.22532151532,0.919857999285017
1643.20169202161,0.921633688439032
1646.17375691377,0.922334441520536
1649.1415161918,0.925986151711063
1652.10496985569,0.929717705018468
1655.06411790546,0.921063207987348
1659.00295101649,0.916766717604467
1661.95205263328,0.912291794939191
1664.89684863594,0.89004965726698
1667.83733902446,0.872117521392143
1670.77352379886,0.841835493707478
1673.70540295912,0.799935470174834
1676.63297650524,0.754507047806158
1679.55624443724,0.71678980047156
1682.4752067551,0.665679150254761
1686.36045889027,0.627417793636414
1689.26937477516,0.598822497236057
1692.17398504592,0.590215241863491
1695.07428970255,0.583149590427017
1697.97028874504,0.587293866023757
1700.8619821734,0.590077611325371
##END=
