##TITLE=Column 1
##JCAMP-DX=4.24
##DATA TYPE=INFRARED SPECTRUM
##Method:,Column 1,Built-In Reference,,,Model Name,NIR-X-XX
##Host Date-Time:,27/10/20 @ 14:59:53,9/7/19 @ 16:39:9,,,GUI Version,2.4.4
##Header Version:,1,1,,,Tiva Version,2.1.0.67
##System Temp (C):,49.11,27.52,,,DLPC Version,2.0.0
##Detector Temp (C),0,0,,,UUID,DE:67:0C:88:67:19:47:21
##Humidity (%):,14.52,73.2,,,Main Board Version,D
##Lamp PD:,2669,2274
##Shift Vector Coefficients:,-6.85384978732833,0.0551332794684546,-0.000110731550088635
##Pixel to Wavelength Coefficients:,1790.66412099084,-0.917492857141292,-0.000239200785115314
##Serial Number:,925R021,925R021
##Scan Config Name:,Column 1,SystemTest
##Scan Config Type:,Column,Column
##Start wavelength (nm):,900,900
##End wavelength (nm):,1700,1700
##Pattern Pixel Width (nm):,7.03,7.03
##Exposure (ms):,0.635,0.635
##Digital Resolution:,228,228
##NPOINTS=228
##Num Repeats:,6,30
##PGA Gain:,64,64
##Total Measurement Time in sec:,1.7911808
##XUNITS=Wavelength(nm)
##YUNITS=Reflectance(AU)
##FIRSTX=901.630473432251
##LASTX=1700.8619821734
##PEAK TABLE=X+(Y..Y)
901.630473432251,0.166071026426844
905.531115772228,0.169725101397026
909.427452498074,0.167093416340329
913.319483609787,0.167595053738588
917.207209107368,0.164277831328667
921.090628990817,0.159478560547412
924.969743260134,0.157415037469237
930.13519799724,0.15696696782284
934.004265833582,0.1577127762887
937.869028055792,0.160670570729132
941.72948466387,0.163580932307055
945.585635657816,0.165489867345879
949.43748103763,0.167021488466002
953.285020803312,0.167144442389495
957.128254954862,0.167383600419016
960.967183492279,0.167626450051807
966.07905725352,0.167921708896877
969.907939357962,0.168301626602313
973.732515848273,0.167013822615758
977.552786724452,0.167229984284515
981.368751986498,0.166587406891659
985.180411634413,0.166508170682184
988.987765668195,0.166867570143894
992.790814087846,0.16673904681548
996.589556893364,0.167133881575723
1001.64784967874,0.166587877764646
1005.43654605128,0.167287455595239
1009.22093680969,0.16734463492124
1013.00102195397,0.167812662323031
1016.77680148412,0.167190914508973
1020.54827540013,0.16752642486312
1024.31544370202,0.168288402499539
1028.07830638977,0.169015118851896
1031.83686346339,0.168266390145862
1036.8415752729,0.168878878712052
1040.59008591354,0.168590865196149
1044.33429094005,0.168824807616121
1048.07419035243,0.168754664291389
1051.80978415068,0.169640766692654
1055.5410723348,0.169472695675746
1059.26805490478,0.170203836057779
1062.99073186063,0.169049151657214
1066.70910320235,0.169488682359748
1071.66023403599,0.169440892937876
1075.36855894474,0.170082260328605
1079.07257823935,0.169769115934817
1082.77229191983,0.170513862896126
1086.46769998618,0.170340734143089
1090.1588024384,0.169864202061993
1093.84559927648,0.170353840947867
1097.52809050043,0.170918301352982
1101.20627611025,0.172013316979148
1106.10382596803,0.17145320840471
1109.77196514487,0.171503848973607
1113.43579870759,0.172671642672506
1117.09532665617,0.171469315388826
1120.75054899062,0.172104641697453
1124.40146571093,0.172864870141684
1128.04807681712,0.172645636251159
1131.69038230917,0.172888402195367
1135.32838218709,0.17402027774524
1140.172351069,0.17395576341364
1143.80030451395,0.174467179536289
1147.42395234476,0.174234346462844
1151.04329456145,0.175017161417784
1154.658331164,0.175618506459841
1158.26906215241,0.175666764586856
1161.8754875267,0.176042984851136
1165.47760728685,0.176029977637649
1169.07542143287,0.176314708544858
1173.86580933892,0.175766441728407
1177.45357705197,0.176526409539403
1181.03703915088,0.176189926951173
1184.61619563566,0.177307470216387
1188.19104650631,0.176694375261586
1191.76159176283,0.178244464377052
1195.32783140522,0.178027536956001
1198.88976543347,0.177803742115138
1202.44739384759,0.178074280060964
1207.18420077777,0.178471947275664
1210.73178275892,0.178482345193091
1214.27505912594,0.179220482340839
1217.81402987882,0.178855012728816
1221.34869501757,0.17889797702609
1224.87905454219,0.179724674301841
1228.40510845267,0.178791817103446
1231.92685674903,0.179568884723524
1235.44429943125,0.179616377965723
1240.12752538557,0.179788432785739
1243.63492163481,0.17940400688945
1247.13801226993,0.178406097087557
1250.63679729091,0.17915678026761
1254.13127669776,0.178669240513965
1257.62145049048,0.178939695950971
1261.10731866907,0.179156596505105
1264.58888123353,0.17955088844602
1268.06613818385,0.178833829691007
1272.6957831623,0.17880728940854
1276.16299367965,0.179438452935901
1279.62589858286,0.179213752482707
1283.08449787195,0.178950454093902
1286.5387915469,0.179011655852768
1289.98877960772,0.17963397127268
1293.43446205441,0.179145002735099
1296.87583888696,0.179210442954437
1300.31291010539,0.179149941154218
1304.88897410797,0.179585261944981
1308.31599889342,0.178802746002576
1311.73871806474,0.179291492981158
1315.15713162192,0.179494824832507
1318.57123956497,0.179584333879184
1321.98104189389,0.179571606417759
1325.38653860868,0.179634081593371
1328.78772970934,0.179735830776683
1332.18461519586,0.179987280872966
1336.70709822258,0.180177442092058
1340.09393727613,0.180016133564158
1343.47647071555,0.179824902925725
1346.85469854083,0.179904851629962
1350.22862075199,0.179987955254161
1353.59823734901,0.179884560301293
1356.9635483319,0.180112840379585
1360.32455370065,0.180204194604813
1363.68125345528,0.180144313842609
1368.15015550613,0.180389138244788
1371.49680882778,0.180366095999225
1374.8391565353,0.180439899666776
1378.17719862868,0.180550083180107
1381.51093510794,0.180095685304127
1384.84036597306,0.180632667681562
1388.16549122405,0.180142276681115
1391.48631086091,0.180169637747388
1394.80282488363,0.179634660797396
1399.21814595862,0.179916679756005
1402.52461354837,0.17948706838029
1405.82677552399,0.178782931128983
1409.12463188548,0.178628744908778
1412.41818263283,0.178984411362552
1415.70742776605,0.178933700855941
1418.99236728514,0.178490187510797
1422.2730011901,0.178643314599399
1425.54932948093,0.178933576972072
1429.91106958005,0.178945410474981
1433.1773514379,0.17847797629166
1436.43932768162,0.179256010632574
1439.6969983112,0.179193457179034
1442.95036332666,0.179592786165488
1446.19942272798,0.179744099555949
1449.44417651517,0.179815611054021
1452.68462468823,0.180016031479997
1456.99852463033,0.180105929202377
1460.22892637041,0.179311868806973
1463.45502249637,0.180035401869983
1466.67681300819,0.180634996897673
1469.89429790587,0.180131700168433
1473.10747718943,0.18068203750167
1476.31635085885,0.180086657568368
1479.52091891415,0.180527951893187
1482.72118135531,0.180604490370783
1486.98150032154,0.180737334881145
1490.17171632972,0.180902835021646
1493.35762672377,0.181045485612478
1496.53923150369,0.181261875791397
1499.71653066948,0.181241445813114
1502.88952422114,0.181071434723982
1506.05821215866,0.182007348382425
1509.22259448206,0.181870053084968
1512.38267119132,0.181615980975639
1516.58940918168,0.181876887182008
1519.73943945797,0.18158771489368
1522.88516412012,0.182184738027844
1526.02658316814,0.181535539338199
1529.16369660203,0.181965304694229
1532.29650442179,0.181657042054852
1535.42500662741,0.182075099153546
1538.54920321891,0.182207084374012
1541.66909419627,0.182373917473255
1545.82225121076,0.18209666743384
1548.93209575515,0.183577383188372
1552.0376346854,0.183171608776175
1555.13886800153,0.182991777403086
1558.23579570352,0.183205632519174
1561.32841779137,0.183625402574183
1564.4167342651,0.184658462469875
1567.50074512469,0.18392950798339
1570.58045037016,0.183904264836263
1574.68002640879,0.184128203495525
1577.74968522127,0.184047191909719
1580.81503841963,0.185000779296754
1583.87608600385,0.184210698254853
1586.93282797394,0.184440320483615
1589.9852643299,0.183675229778473
1593.03339507173,0.183946790889309
1596.07722019942,0.184761110703178
1599.11673971298,0.184212757812822
1603.16273477575,0.183521907737457
1606.19220785634,0.184929636067993
1609.21737532279,0.183505073854954
1612.23823717512,0.184415903972784
1615.25479341331,0.184337811900192
1618.26704403737,0.184271690222783
1621.27498904729,0.18335975100147
1624.27862844309,0.184091756034947
1627.27796222475,0.183164602716092
1631.27037631165,0.183457092068935
1634.25966366034,0.18357877944867
1637.2446453949,0.183348406021511
1640.22532151532,0.182505611141854
1643.20169202161,0.180615850222731
1646.17375691377,0.180593791184654
1649.1415161918,0.180211665883281
1652.10496985569,0.179673898947186
1655.06411790546,0.180934901858195
1659.00295101649,0.182748104905463
1661.95205263328,0.187164910334627
1664.89684863594,0.193796370787521
1667.83733902446,0.207192992001741
1670.77352379886,0.223113486011283
1673.70540295912,0.243624147040168
1676.63297650524,0.27026851468427
1679.55624443724,0.301470728861859
1682.4752067551,0.3289877213829
1686.36045889027,0.362515762478924
1689.26937477516,0.37900578265869
1692.17398504592,0.392114807159849
1695.07428970255,0.399995442426452
1697.97028874504,0.406504494976203
1700.8619821734,0.398729538236013
##END=
