##TITLE=Column 1
##JCAMP-DX=4.24
##DATA TYPE=INFRARED SPECTRUM
##Method:,Column 1,Built-In Reference,,,Model Name,NIR-X-XX
##Host Date-Time:,27/10/20 @ 15:0:6,9/7/19 @ 16:39:9,,,GUI Version,2.4.4
##Header Version:,1,1,,,Tiva Version,2.1.0.67
##System Temp (C):,49.19,27.52,,,DLPC Version,2.0.0
##Detector Temp (C),0,0,,,UUID,DE:67:0C:88:67:19:47:21
##Humidity (%):,14.43,73.2,,,Main Board Version,D
##Lamp PD:,2671,2274
##Shift Vector Coefficients:,-6.85384978732833,0.0551332794684546,-0.000110731550088635
##Pixel to Wavelength Coefficients:,1790.66412099084,-0.917492857141292,-0.000239200785115314
##Serial Number:,925R021,925R021
##Scan Config Name:,Column 1,SystemTest
##Scan Config Type:,Column,Column
##Start wavelength (nm):,900,900
##End wavelength (nm):,1700,1700
##Pattern Pixel Width (nm):,7.03,7.03
##Exposure (ms):,0.635,0.635
##Digital Resolution:,228,228
##NPOINTS=228
##Num Repeats:,6,30
##PGA Gain:,64,64
##Total Measurement Time in sec:,1.801169
##XUNITS=Wavelength(nm)
##YUNITS=Absorbance(AU)
##FIRSTX=901.630473432251
##LASTX=1700.8619821734
##PEAK TABLE=X+(Y..Y)
901.630473432251,0.381853188778583
905.531115772228,0.377758418810168
909.427452498074,0.377160682083294
913.319483609787,0.384676945899339
917.207209107368,0.390104297787308
921.090628990817,0.39549846711654
924.969743260134,0.404053569170524
930.13519799724,0.405424532048149
934.004265833582,0.403641979238852
937.869028055792,0.394739735554833
941.72948466387,0.386825006965204
945.585635657816,0.383156987646801
949.43748103763,0.379836201988367
953.285020803312,0.376517322968447
957.128254954862,0.373918574463174
960.967183492279,0.376861170041034
966.07905725352,0.376702168094399
969.907939357962,0.376442473881262
973.732515848273,0.378211301176967
977.552786724452,0.378955548547969
981.368751986498,0.380215121344911
985.180411634413,0.380806821564362
988.987765668195,0.380539488919731
992.790814087846,0.380866359346026
996.589556893364,0.380961090613393
1001.64784967874,0.380573820099797
1005.43654605128,0.380624786987354
1009.22093680969,0.380754809267519
1013.00102195397,0.380384535482983
1016.77680148412,0.380076504660767
1020.54827540013,0.379574810210645
1024.31544370202,0.37964911563397
1028.07830638977,0.380438879973502
1031.83686346339,0.379896218964105
1036.8415752729,0.380454711809598
1040.59008591354,0.380054309667329
1044.33429094005,0.381184393377136
1048.07419035243,0.381473122081716
1051.80978415068,0.38135640556953
1055.5410723348,0.382488122309798
1059.26805490478,0.382278291643584
1062.99073186063,0.381927183290491
1066.70910320235,0.383299374577837
1071.66023403599,0.382360333414963
1075.36855894474,0.384148170632628
1079.07257823935,0.382774786907136
1082.77229191983,0.383162692231798
1086.46769998618,0.382332060512272
1090.1588024384,0.382914454355117
1093.84559927648,0.382083827303662
1097.52809050043,0.381407683473258
1101.20627611025,0.381054013372458
1106.10382596803,0.379833703481829
1109.77196514487,0.379506562784512
1113.43579870759,0.379177456823121
1117.09532665617,0.37879508371454
1120.75054899062,0.379038815322081
1124.40146571093,0.379975042787215
1128.04807681712,0.379699642244985
1131.69038230917,0.379032155541276
1135.32838218709,0.37629597061279
1140.172351069,0.372127101135416
1143.80030451395,0.370110181807715
1147.42395234476,0.369498268364488
1151.04329456145,0.368304118286426
1154.658331164,0.367624780286939
1158.26906215241,0.367553811061004
1161.8754875267,0.367065014438073
1165.47760728685,0.367002029111783
1169.07542143287,0.367214255773476
1173.86580933892,0.367159775204164
1177.45357705197,0.366833675809178
1181.03703915088,0.36565873074607
1184.61619563566,0.365038730993825
1188.19104650631,0.364560829725987
1191.76159176283,0.363465763047863
1195.32783140522,0.362908902156614
1198.88976543347,0.362110967697475
1202.44739384759,0.360857155365971
1207.18420077777,0.36190590633846
1210.73178275892,0.361264519297647
1214.27505912594,0.360968795726173
1217.81402987882,0.360771206150232
1221.34869501757,0.360873930756994
1224.87905454219,0.361235787136029
1228.40510845267,0.361614331797453
1231.92685674903,0.361601642161845
1235.44429943125,0.362396255320148
1240.12752538557,0.362427549368908
1243.63492163481,0.363442850526592
1247.13801226993,0.363609367686539
1250.63679729091,0.363611490454115
1254.13127669776,0.363640150869236
1257.62145049048,0.364050410493558
1261.10731866907,0.364554128321174
1264.58888123353,0.364984552359481
1268.06613818385,0.365615292136598
1272.6957831623,0.366080186905287
1276.16299367965,0.36629357549389
1279.62589858286,0.366706586028224
1283.08449787195,0.367175363041877
1286.5387915469,0.36737862112902
1289.98877960772,0.367106133848579
1293.43446205441,0.367605600303909
1296.87583888696,0.367579534425915
1300.31291010539,0.367602347761591
1304.88897410797,0.367899629328096
1308.31599889342,0.367858207779591
1311.73871806474,0.368011000673
1315.15713162192,0.367464370811031
1318.57123956497,0.36765457848623
1321.98104189389,0.367973603830328
1325.38653860868,0.368047667416906
1328.78772970934,0.367758045172264
1332.18461519586,0.367476895520302
1336.70709822258,0.367673772527089
1340.09393727613,0.367761650997851
1343.47647071555,0.368276923022044
1346.85469854083,0.369222424287311
1350.22862075199,0.369510389197527
1353.59823734901,0.369906492673112
1356.9635483319,0.370184578090467
1360.32455370065,0.370820835277112
1363.68125345528,0.370958409573422
1368.15015550613,0.370446566653587
1371.49680882778,0.37031468251603
1374.8391565353,0.370905313504317
1378.17719862868,0.370925466517597
1381.51093510794,0.370959929695684
1384.84036597306,0.371022957777719
1388.16549122405,0.371618610746274
1391.48631086091,0.372206687812539
1394.80282488363,0.372602923227824
1399.21814595862,0.373692814747562
1402.52461354837,0.374099228218843
1405.82677552399,0.375403987021395
1409.12463188548,0.37553577958722
1412.41818263283,0.376426947220467
1415.70742776605,0.375956371522799
1418.99236728514,0.376023512150769
1422.2730011901,0.37531718190661
1425.54932948093,0.374543053567991
1429.91106958005,0.374049421923196
1433.1773514379,0.373493882465616
1436.43932768162,0.37276814146846
1439.6969983112,0.372506370540057
1442.95036332666,0.371692971919939
1446.19942272798,0.370390355630452
1449.44417651517,0.370304217326986
1452.68462468823,0.370036408419442
1456.99852463033,0.368817271563396
1460.22892637041,0.368787665062797
1463.45502249637,0.369005330597929
1466.67681300819,0.368265974691043
1469.89429790587,0.368419290360634
1473.10747718943,0.367237010369143
1476.31635085885,0.367173226130707
1479.52091891415,0.36705603304988
1482.72118135531,0.366659282578959
1486.98150032154,0.365522492834818
1490.17171632972,0.36560987907155
1493.35762672377,0.365382900055096
1496.53923150369,0.364594235658015
1499.71653066948,0.364814559187166
1502.88952422114,0.364670044814961
1506.05821215866,0.363926029427535
1509.22259448206,0.363905934603188
1512.38267119132,0.363464187831146
1516.58940918168,0.363060675788052
1519.73943945797,0.362242981192578
1522.88516412012,0.362816072422027
1526.02658316814,0.362232120995226
1529.16369660203,0.361784461530072
1532.29650442179,0.361678019395764
1535.42500662741,0.361665130577922
1538.54920321891,0.360481083269763
1541.66909419627,0.359581397482811
1545.82225121076,0.359722626727842
1548.93209575515,0.359158213830406
1552.0376346854,0.357730145864523
1555.13886800153,0.357235269817096
1558.23579570352,0.357181498842868
1561.32841779137,0.356699391054333
1564.4167342651,0.354884674548788
1567.50074512469,0.354224654059577
1570.58045037016,0.353858096521345
1574.68002640879,0.353330538870764
1577.74968522127,0.352109112930043
1580.81503841963,0.35128402092309
1583.87608600385,0.350989552455169
1586.93282797394,0.350216244558803
1589.9852643299,0.349715085583068
1593.03339507173,0.34903738153446
1596.07722019942,0.348522227722629
1599.11673971298,0.346583992655982
1603.16273477575,0.346187492755175
1606.19220785634,0.345687789634886
1609.21737532279,0.346999920671617
1612.23823717512,0.347317732158624
1615.25479341331,0.347346210861464
1618.26704403737,0.346523519569276
1621.27498904729,0.346144081727704
1624.27862844309,0.346200741045521
1627.27796222475,0.34798913378607
1631.27037631165,0.34880214081494
1634.25966366034,0.351450201106869
1637.2446453949,0.355632464694529
1640.22532151532,0.361879673585605
1643.20169202161,0.369357475344554
1646.17375691377,0.377774745494444
1649.1415161918,0.386930837436874
1652.10496985569,0.393315602944609
1655.06411790546,0.400273548033639
1659.00295101649,0.399470509223934
1661.95205263328,0.388582258949483
1664.89684863594,0.365746698418869
1667.83733902446,0.335915782832693
1670.77352379886,0.292806295446223
1673.70540295912,0.24968613828216
1676.63297650524,0.201685917768786
1679.55624443724,0.152298145543409
1682.4752067551,0.108054756671708
1686.36045889027,0.0570901054797498
1689.26937477516,0.0306658189048918
1692.17398504592,0.0164125640661355
1695.07428970255,0.00762762955574548
1697.97028874504,0.0122397059098774
1700.8619821734,0.0192822464111968
##END=
