##TITLE=Column 1
##JCAMP-DX=4.24
##DATA TYPE=INFRARED SPECTRUM
##Method:,Column 1,Built-In Reference,,,Model Name,NIR-X-XX
##Host Date-Time:,27/10/20 @ 15:0:19,9/7/19 @ 16:39:9,,,GUI Version,2.4.4
##Header Version:,1,1,,,Tiva Version,2.1.0.67
##System Temp (C):,49.29,27.52,,,DLPC Version,2.0.0
##Detector Temp (C),0,0,,,UUID,DE:67:0C:88:67:19:47:21
##Humidity (%):,14.38,73.2,,,Main Board Version,D
##Lamp PD:,2673,2274
##Shift Vector Coefficients:,-6.85384978732833,0.0551332794684546,-0.000110731550088635
##Pixel to Wavelength Coefficients:,1790.66412099084,-0.917492857141292,-0.000239200785115314
##Serial Number:,925R021,925R021
##Scan Config Name:,Column 1,SystemTest
##Scan Config Type:,Column,Column
##Start wavelength (nm):,900,900
##End wavelength (nm):,1700,1700
##Pattern Pixel Width (nm):,7.03,7.03
##Exposure (ms):,0.635,0.635
##Digital Resolution:,228,228
##NPOINTS=228
##Num Repeats:,6,30
##PGA Gain:,64,64
##Total Measurement Time in sec:,1.8810404
##XUNITS=Wavelength(nm)
##YUNITS=Absorbance(AU)
##FIRSTX=901.630473432251
##LASTX=1700.8619821734
##PEAK TABLE=X+(Y..Y)
901.630473432251,0.550021526568624
905.531115772228,0.551279053855751
909.427452498074,0.557319763259799
913.319483609787,0.558684011564279
917.207209107368,0.561016575188036
921.090628990817,0.573244311978954
924.969743260134,0.579864787478501
930.13519799724,0.579435099436618
934.004265833582,0.576040673982714
937.869028055792,0.568314135824209
941.72948466387,0.559423062651469
945.585635657816,0.554278782410695
949.43748103763,0.548055287613647
953.285020803312,0.545531341042808
957.128254954862,0.543903522366551
960.967183492279,0.541299513635057
966.07905725352,0.540213163085193
969.907939357962,0.538701381639671
973.732515848273,0.539273042731543
977.552786724452,0.541026104856203
981.368751986498,0.538328364935104
985.180411634413,0.538941458171213
988.987765668195,0.537470521964694
992.790814087846,0.537917450660277
996.589556893364,0.536834543120768
1001.64784967874,0.536299667141003
1005.43654605128,0.535331277249488
1009.22093680969,0.534431378165013
1013.00102195397,0.533781881324275
1016.77680148412,0.533555365788719
1020.54827540013,0.53304143715686
1024.31544370202,0.532319150157279
1028.07830638977,0.532682263548136
1031.83686346339,0.530080059482766
1036.8415752729,0.530048368730465
1040.59008591354,0.529594296811356
1044.33429094005,0.528456689961155
1048.07419035243,0.528081576515329
1051.80978415068,0.527112283472268
1055.5410723348,0.526076903443857
1059.26805490478,0.526126161957342
1062.99073186063,0.526514049396526
1066.70910320235,0.523617363979444
1071.66023403599,0.52418194440266
1075.36855894474,0.524465567012911
1079.07257823935,0.523796616035488
1082.77229191983,0.524113937116214
1086.46769998618,0.523565926548855
1090.1588024384,0.523217678963305
1093.84559927648,0.522520227892349
1097.52809050043,0.521365336047624
1101.20627611025,0.520721223136632
1106.10382596803,0.52102898338887
1109.77196514487,0.520309329509444
1113.43579870759,0.519611998209949
1117.09532665617,0.52013197820397
1120.75054899062,0.520020483609266
1124.40146571093,0.520877886760551
1128.04807681712,0.5219787048951
1131.69038230917,0.521352175357874
1135.32838218709,0.519212012603052
1140.172351069,0.517029946861653
1143.80030451395,0.516689214057813
1147.42395234476,0.514662885323852
1151.04329456145,0.515032784527159
1154.658331164,0.514061592716118
1158.26906215241,0.514979003917179
1161.8754875267,0.516036946160025
1165.47760728685,0.516018267991643
1169.07542143287,0.514752869056863
1173.86580933892,0.513995987163849
1177.45357705197,0.514569221059837
1181.03703915088,0.514142725297936
1184.61619563566,0.513780086072364
1188.19104650631,0.512837063162621
1191.76159176283,0.511288781933414
1195.32783140522,0.511808255185254
1198.88976543347,0.509993448798169
1202.44739384759,0.510127626687918
1207.18420077777,0.509320101433225
1210.73178275892,0.508469816377218
1214.27505912594,0.508226783960093
1217.81402987882,0.507730367898584
1221.34869501757,0.507215771933775
1224.87905454219,0.507029001498246
1228.40510845267,0.507535279373406
1231.92685674903,0.506423009184084
1235.44429943125,0.506333214227597
1240.12752538557,0.506000771465636
1243.63492163481,0.505364094292919
1247.13801226993,0.504574207156819
1250.63679729091,0.504874128564212
1254.13127669776,0.504286283341368
1257.62145049048,0.503944883484339
1261.10731866907,0.503721032059718
1264.58888123353,0.504570435764023
1268.06613818385,0.504012246909674
1272.6957831623,0.503577727442283
1276.16299367965,0.50309955776602
1279.62589858286,0.503630926815977
1283.08449787195,0.503535221523451
1286.5387915469,0.50368371265909
1289.98877960772,0.503568559109771
1293.43446205441,0.503417579564593
1296.87583888696,0.503419097364492
1300.31291010539,0.502687131475061
1304.88897410797,0.502906599728498
1308.31599889342,0.502334932120158
1311.73871806474,0.502442144339522
1315.15713162192,0.502661847097532
1318.57123956497,0.502203625429248
1321.98104189389,0.501877372176963
1325.38653860868,0.502514323465588
1328.78772970934,0.502000118280945
1332.18461519586,0.50235998573623
1336.70709822258,0.501744993403691
1340.09393727613,0.502302996227698
1343.47647071555,0.502230787675168
1346.85469854083,0.503194511415977
1350.22862075199,0.503051210611345
1353.59823734901,0.503586041635097
1356.9635483319,0.503870690668259
1360.32455370065,0.50402157800584
1363.68125345528,0.503845636917748
1368.15015550613,0.503641043899923
1371.49680882778,0.504012460491652
1374.8391565353,0.504216057225542
1378.17719862868,0.503821104890155
1381.51093510794,0.503637644295001
1384.84036597306,0.504141930728995
1388.16549122405,0.505069144875768
1391.48631086091,0.504702830334283
1394.80282488363,0.50550459226729
1399.21814595862,0.507048762522406
1402.52461354837,0.507473393014896
1405.82677552399,0.508539265652511
1409.12463188548,0.508697643270917
1412.41818263283,0.509619309803688
1415.70742776605,0.509413350916808
1418.99236728514,0.51012090096624
1422.2730011901,0.509456750355767
1425.54932948093,0.510655141584784
1429.91106958005,0.508558387667516
1433.1773514379,0.507609819687103
1436.43932768162,0.508370258078987
1439.6969983112,0.507464166344596
1442.95036332666,0.506679228359775
1446.19942272798,0.50561121646918
1449.44417651517,0.505774725861671
1452.68462468823,0.505344208946222
1456.99852463033,0.505016183894559
1460.22892637041,0.504662779530132
1463.45502249637,0.50480497901068
1466.67681300819,0.504614579427084
1469.89429790587,0.504305758284991
1473.10747718943,0.503538736786143
1476.31635085885,0.503325962589288
1479.52091891415,0.504083489278215
1482.72118135531,0.502507383547896
1486.98150032154,0.501801233406026
1490.17171632972,0.501967301395652
1493.35762672377,0.500935772144873
1496.53923150369,0.501332944980333
1499.71653066948,0.50132806408408
1502.88952422114,0.500945168350329
1506.05821215866,0.501058090637341
1509.22259448206,0.500463401510256
1512.38267119132,0.499765480139601
1516.58940918168,0.500373048462314
1519.73943945797,0.499784123140253
1522.88516412012,0.499573299375334
1526.02658316814,0.498924896326826
1529.16369660203,0.498783914379075
1532.29650442179,0.498186502553586
1535.42500662741,0.49908262444771
1538.54920321891,0.497656451099383
1541.66909419627,0.498276034063798
1545.82225121076,0.497399142089516
1548.93209575515,0.497786073539415
1552.0376346854,0.497925943913166
1555.13886800153,0.495624717318849
1558.23579570352,0.497261208339677
1561.32841779137,0.496887075685465
1564.4167342651,0.496656994458106
1567.50074512469,0.495975259577986
1570.58045037016,0.495886922222092
1574.68002640879,0.49556793285815
1577.74968522127,0.496757331422149
1580.81503841963,0.495286973627194
1583.87608600385,0.496066191373195
1586.93282797394,0.497483379037253
1589.9852643299,0.495672002704255
1593.03339507173,0.49683267525844
1596.07722019942,0.497693214333917
1599.11673971298,0.498198088722
1603.16273477575,0.497821290956112
1606.19220785634,0.498358614429255
1609.21737532279,0.498410958665557
1612.23823717512,0.499481166389631
1615.25479341331,0.500309902641029
1618.26704403737,0.500182275768423
1621.27498904729,0.500894907496407
1624.27862844309,0.502766915930395
1627.27796222475,0.501971144641998
1631.27037631165,0.505216780304018
1634.25966366034,0.507108316481813
1637.2446453949,0.508901549968243
1640.22532151532,0.513188850966338
1643.20169202161,0.51869574261485
1646.17375691377,0.523562936842163
1649.1415161918,0.530169836668881
1652.10496985569,0.533558238136845
1655.06411790546,0.536680735255127
1659.00295101649,0.53287557984291
1661.95205263328,0.521349220282784
1664.89684863594,0.498995319707988
1667.83733902446,0.475397332908323
1670.77352379886,0.436142295456518
1673.70540295912,0.395151978967643
1676.63297650524,0.347238693980212
1679.55624443724,0.299305780228326
1682.4752067551,0.259233146320847
1686.36045889027,0.212307979832798
1689.26937477516,0.186225134719526
1692.17398504592,0.174438894764754
1695.07428970255,0.160194856366617
1697.97028874504,0.166185992299694
1700.8619821734,0.173341211744533
##END=
