##TITLE=Column 1
##JCAMP-DX=4.24
##DATA TYPE=INFRARED SPECTRUM
##Method:,Column 1,Built-In Reference,,,Model Name,NIR-X-XX
##Host Date-Time:,27/10/20 @ 15:0:43,9/7/19 @ 16:39:9,,,GUI Version,2.4.4
##Header Version:,1,1,,,Tiva Version,2.1.0.67
##System Temp (C):,49.44,27.52,,,DLPC Version,2.0.0
##Detector Temp (C),0,0,,,UUID,DE:67:0C:88:67:19:47:21
##Humidity (%):,14.33,73.2,,,Main Board Version,D
##Lamp PD:,2670,2274
##Shift Vector Coefficients:,-6.85384978732833,0.0551332794684546,-0.000110731550088635
##Pixel to Wavelength Coefficients:,1790.66412099084,-0.917492857141292,-0.000239200785115314
##Serial Number:,925R021,925R021
##Scan Config Name:,Column 1,SystemTest
##Scan Config Type:,Column,Column
##Start wavelength (nm):,900,900
##End wavelength (nm):,1700,1700
##Pattern Pixel Width (nm):,7.03,7.03
##Exposure (ms):,0.635,0.635
##Digital Resolution:,228,228
##NPOINTS=228
##Num Repeats:,6,30
##PGA Gain:,64,64
##Total Measurement Time in sec:,1.7951768
##XUNITS=Wavelength(nm)
##YUNITS=Reflectance(AU)
##FIRSTX=901.630473432251
##LASTX=1700.8619821734
##PEAK TABLE=X+(Y..Y)
901.630473432251,0.103944933467801
905.531115772228,0.109887336638125
909.427452498074,0.107800314623289
913.319483609787,0.108132054393467
917.207209107368,0.107951608622159
921.090628990817,0.105811252903129
924.969743260134,0.103586538727429
930.13519799724,0.104278887717198
934.004265833582,0.104485793333247
937.869028055792,0.109093745499928
941.72948466387,0.1118768466417
945.585635657816,0.113137522523975
949.43748103763,0.116809625514205
953.285020803312,0.118890195249544
957.128254954862,0.119773043503179
960.967183492279,0.12172287523021
966.07905725352,0.124849247857113
969.907939357962,0.125102214675036
973.732515848273,0.125236162861782
977.552786724452,0.126262082624701
981.368751986498,0.127665164672035
985.180411634413,0.128705593280456
988.987765668195,0.128339494933702
992.790814087846,0.129477746206246
996.589556893364,0.129549219293689
1001.64784967874,0.130100576445334
1005.43654605128,0.129855798232427
1009.22093680969,0.131139224829833
1013.00102195397,0.130709916439958
1016.77680148412,0.130395811062654
1020.54827540013,0.13078564491317
1024.31544370202,0.131195038765557
1028.07830638977,0.131841031739639
1031.83686346339,0.130959810358615
1036.8415752729,0.129932836051874
1040.59008591354,0.13120165600589
1044.33429094005,0.131584570872901
1048.07419035243,0.130174053299309
1051.80978415068,0.131028556670424
1055.5410723348,0.130003533757061
1059.26805490478,0.130630237218397
1062.99073186063,0.130772313783597
1066.70910320235,0.129931031800247
1071.66023403599,0.129276189457616
1075.36855894474,0.128503579645599
1079.07257823935,0.129459821148188
1082.77229191983,0.128006273543831
1086.46769998618,0.128153005935493
1090.1588024384,0.12751135621577
1093.84559927648,0.127671909718853
1097.52809050043,0.127734831576942
1101.20627611025,0.127810291454938
1106.10382596803,0.127189545203402
1109.77196514487,0.126374633431085
1113.43579870759,0.126254412305847
1117.09532665617,0.125806793170334
1120.75054899062,0.126076786145575
1124.40146571093,0.125791507847409
1128.04807681712,0.125145575709276
1131.69038230917,0.125534142497743
1135.32838218709,0.126219636527707
1140.172351069,0.126218007851887
1143.80030451395,0.125619008097381
1147.42395234476,0.125587238579859
1151.04329456145,0.126542434744755
1154.658331164,0.125949275212045
1158.26906215241,0.126460842538173
1161.8754875267,0.125426735731056
1165.47760728685,0.125579708685053
1169.07542143287,0.124557842390502
1173.86580933892,0.125532851996917
1177.45357705197,0.125753044262863
1181.03703915088,0.124461745482507
1184.61619563566,0.124867037442256
1188.19104650631,0.125452555991194
1191.76159176283,0.12591271988673
1195.32783140522,0.125924014399892
1198.88976543347,0.126278778729068
1202.44739384759,0.126618358779647
1207.18420077777,0.127005455329019
1210.73178275892,0.127138464091435
1214.27505912594,0.126648162775106
1217.81402987882,0.127759593755472
1221.34869501757,0.128184841740645
1224.87905454219,0.128292258720835
1228.40510845267,0.128833302003591
1231.92685674903,0.130156441496648
1235.44429943125,0.130565456914967
1240.12752538557,0.130739049414585
1243.63492163481,0.131680339401286
1247.13801226993,0.131599257964681
1250.63679729091,0.131933551214847
1254.13127669776,0.132824093623695
1257.62145049048,0.132848897747895
1261.10731866907,0.133202970514567
1264.58888123353,0.133510609150086
1268.06613818385,0.13373070391767
1272.6957831623,0.134351967105355
1276.16299367965,0.134757731445085
1279.62589858286,0.134753783987398
1283.08449787195,0.134404195143665
1286.5387915469,0.134845439110725
1289.98877960772,0.134576775942406
1293.43446205441,0.135169655802393
1296.87583888696,0.135136740404414
1300.31291010539,0.135270427892901
1304.88897410797,0.135693261584408
1308.31599889342,0.136001625408469
1311.73871806474,0.135482488604932
1315.15713162192,0.135398301217564
1318.57123956497,0.13524747732995
1321.98104189389,0.135496373172204
1325.38653860868,0.135591074618883
1328.78772970934,0.135381236880349
1332.18461519586,0.135397950979657
1336.70709822258,0.135916503925195
1340.09393727613,0.135919451303439
1343.47647071555,0.135852073340393
1346.85469854083,0.135801135742579
1350.22862075199,0.136080806919589
1353.59823734901,0.135630487947355
1356.9635483319,0.135877193329927
1360.32455370065,0.13620717349373
1363.68125345528,0.13627685218764
1368.15015550613,0.135757188892569
1371.49680882778,0.136012364760433
1374.8391565353,0.13600951837613
1378.17719862868,0.135973480868575
1381.51093510794,0.136302428668502
1384.84036597306,0.136379790901764
1388.16549122405,0.136514433160042
1391.48631086091,0.136688220170321
1394.80282488363,0.136933420455327
1399.21814595862,0.136933693974629
1402.52461354837,0.136933907622621
1405.82677552399,0.136719591716909
1409.12463188548,0.136430264019328
1412.41818263283,0.136342216338562
1415.70742776605,0.136824314521979
1418.99236728514,0.136230941531529
1422.2730011901,0.136672039965727
1425.54932948093,0.13666767860022
1429.91106958005,0.137249801643237
1433.1773514379,0.137374124812395
1436.43932768162,0.137273919656593
1439.6969983112,0.137882160026399
1442.95036332666,0.137811570920774
1446.19942272798,0.138144641784467
1449.44417651517,0.13808356597858
1452.68462468823,0.138511987174816
1456.99852463033,0.139029522617652
1460.22892637041,0.13813697355154
1463.45502249637,0.138215657615442
1466.67681300819,0.138957706665802
1469.89429790587,0.138867816270427
1473.10747718943,0.138722033344715
1476.31635085885,0.139402346167901
1479.52091891415,0.139122458339703
1482.72118135531,0.13923312721713
1486.98150032154,0.140078452795545
1490.17171632972,0.139991024161492
1493.35762672377,0.140061589500603
1496.53923150369,0.14013317893194
1499.71653066948,0.140445750902078
1502.88952422114,0.140578237098823
1506.05821215866,0.141073797763303
1509.22259448206,0.141237801583013
1512.38267119132,0.142230811387695
1516.58940918168,0.142054000379667
1519.73943945797,0.142001972499497
1522.88516412012,0.142972676332967
1526.02658316814,0.14308540771102
1529.16369660203,0.142574760443583
1532.29650442179,0.14344127174035
1535.42500662741,0.143345981491338
1538.54920321891,0.1440913180465
1541.66909419627,0.143972104625222
1545.82225121076,0.144298205705987
1548.93209575515,0.144900236946283
1552.0376346854,0.145916645752692
1555.13886800153,0.145499855157507
1558.23579570352,0.146354736479374
1561.32841779137,0.146548463627924
1564.4167342651,0.147642554710816
1567.50074512469,0.147654275224872
1570.58045037016,0.147889245038532
1574.68002640879,0.147961080494854
1577.74968522127,0.148536033442954
1580.81503841963,0.149289772423997
1583.87608600385,0.150266029850226
1586.93282797394,0.150385047061307
1589.9852643299,0.151137372228641
1593.03339507173,0.151688651537858
1596.07722019942,0.152161503423871
1599.11673971298,0.153421796676447
1603.16273477575,0.152665412276718
1606.19220785634,0.153281820757679
1609.21737532279,0.153767190377307
1612.23823717512,0.15406505587145
1615.25479341331,0.154872497943515
1618.26704403737,0.155245533518635
1621.27498904729,0.156563589728811
1624.27862844309,0.156609900802688
1627.27796222475,0.15682986911607
1631.27037631165,0.158221025957817
1634.25966366034,0.157925283219527
1637.2446453949,0.155963945684929
1640.22532151532,0.157452249440604
1643.20169202161,0.156868512539913
1646.17375691377,0.157292429345439
1649.1415161918,0.156236259154246
1652.10496985569,0.154019672955777
1655.06411790546,0.155923252372816
1659.00295101649,0.156770061862856
1661.95205263328,0.163801072286929
1664.89684863594,0.170967293386172
1667.83733902446,0.180009793786387
1670.77352379886,0.196474977329576
1673.70540295912,0.21600184009312
1676.63297650524,0.243011066994698
1679.55624443724,0.268374548166848
1682.4752067551,0.296678549199344
1686.36045889027,0.333810340186174
1689.26937477516,0.353725398703485
1692.17398504592,0.368287641851577
1695.07428970255,0.363580429779186
1697.97028874504,0.373426758328926
1700.8619821734,0.363242120693868
##END=
