##TITLE=Column 1
##JCAMP-DX=4.24
##DATA TYPE=INFRARED SPECTRUM
##Method:,Column 1,Built-In Reference,,,Model Name,NIR-X-XX
##Host Date-Time:,27/10/20 @ 15:0:35,9/7/19 @ 16:39:9,,,GUI Version,2.4.4
##Header Version:,1,1,,,Tiva Version,2.1.0.67
##System Temp (C):,49.39,27.52,,,DLPC Version,2.0.0
##Detector Temp (C),0,0,,,UUID,DE:67:0C:88:67:19:47:21
##Humidity (%):,14.33,73.2,,,Main Board Version,D
##Lamp PD:,2670,2274
##Shift Vector Coefficients:,-6.85384978732833,0.0551332794684546,-0.000110731550088635
##Pixel to Wavelength Coefficients:,1790.66412099084,-0.917492857141292,-0.000239200785115314
##Serial Number:,925R021,925R021
##Scan Config Name:,Column 1,SystemTest
##Scan Config Type:,Column,Column
##Start wavelength (nm):,900,900
##End wavelength (nm):,1700,1700
##Pattern Pixel Width (nm):,7.03,7.03
##Exposure (ms):,0.635,0.635
##Digital Resolution:,228,228
##NPOINTS=228
##Num Repeats:,6,30
##PGA Gain:,64,64
##Total Measurement Time in sec:,1.8191392
##XUNITS=Wavelength(nm)
##YUNITS=Absorbance(AU)
##FIRSTX=901.630473432251
##LASTX=1700.8619821734
##PEAK TABLE=X+(Y..Y)
901.630473432251,0.79033334557884
905.531115772228,0.780002753408846
909.427452498074,0.778347531821043
913.319483609787,0.774582385017512
917.207209107368,0.784181051401605
921.090628990817,0.796703036544296
924.969743260134,0.802816480717728
930.13519799724,0.806735673091721
934.004265833582,0.794790900775278
937.869028055792,0.791347495402697
941.72948466387,0.78798948229131
945.585635657816,0.779773856566369
949.43748103763,0.769923352044503
953.285020803312,0.768511528400299
957.128254954862,0.765605545153159
960.967183492279,0.75968854195932
966.07905725352,0.756205976805015
969.907939357962,0.756029432851928
973.732515848273,0.756214847227365
977.552786724452,0.757038089780595
981.368751986498,0.756570091328304
985.180411634413,0.753537195591796
988.987765668195,0.753836869964384
992.790814087846,0.753660458830551
996.589556893364,0.75447640001218
1001.64784967874,0.752476553149114
1005.43654605128,0.751841147334411
1009.22093680969,0.751105082629162
1013.00102195397,0.750096003072272
1016.77680148412,0.750749392904197
1020.54827540013,0.749598551516496
1024.31544370202,0.74910730839014
1028.07830638977,0.749179722086951
1031.83686346339,0.749493198423923
1036.8415752729,0.747320546946373
1040.59008591354,0.749395558700715
1044.33429094005,0.746546282195633
1048.07419035243,0.744664768814754
1051.80978415068,0.744074684727779
1055.5410723348,0.745841046812791
1059.26805490478,0.742922075842141
1062.99073186063,0.745908851687478
1066.70910320235,0.745278140381703
1071.66023403599,0.745667322268858
1075.36855894474,0.744790557032888
1079.07257823935,0.7459082716965
1082.77229191983,0.745258989534556
1086.46769998618,0.74509309306853
1090.1588024384,0.745849771624118
1093.84559927648,0.742610928345481
1097.52809050043,0.742461555601259
1101.20627611025,0.742509399818084
1106.10382596803,0.742452502123875
1109.77196514487,0.742914868133316
1113.43579870759,0.741545610491951
1117.09532665617,0.741897556853947
1120.75054899062,0.744250348671011
1124.40146571093,0.743033664515318
1128.04807681712,0.743431141417166
1131.69038230917,0.741845111266165
1135.32838218709,0.742392414427822
1140.172351069,0.739266993159578
1143.80030451395,0.739688534146357
1147.42395234476,0.738218594703854
1151.04329456145,0.740155960374538
1154.658331164,0.73894605440033
1158.26906215241,0.738431008945455
1161.8754875267,0.737923387022336
1165.47760728685,0.739882175319573
1169.07542143287,0.738547539239151
1173.86580933892,0.738272187883996
1177.45357705197,0.738880122704735
1181.03703915088,0.736339818941456
1184.61619563566,0.737544005811957
1188.19104650631,0.737583123822127
1191.76159176283,0.736490559322454
1195.32783140522,0.735438467231164
1198.88976543347,0.735468635048377
1202.44739384759,0.73506539488288
1207.18420077777,0.734374597873559
1210.73178275892,0.734265254730375
1214.27505912594,0.732731586790996
1217.81402987882,0.732823054245382
1221.34869501757,0.733426513699862
1224.87905454219,0.732555262512215
1228.40510845267,0.730786498342359
1231.92685674903,0.732426322954265
1235.44429943125,0.731239390254979
1240.12752538557,0.72993719132784
1243.63492163481,0.730231526438846
1247.13801226993,0.730587762640041
1250.63679729091,0.72918553178978
1254.13127669776,0.728996155737475
1257.62145049048,0.72846119639484
1261.10731866907,0.728835092540097
1264.58888123353,0.72776889199916
1268.06613818385,0.728048793066957
1272.6957831623,0.728102756920979
1276.16299367965,0.727077278289497
1279.62589858286,0.727085589569669
1283.08449787195,0.728386406079323
1286.5387915469,0.728559073396844
1289.98877960772,0.727562178770455
1293.43446205441,0.727259438680081
1296.87583888696,0.728589840882057
1300.31291010539,0.728189949635847
1304.88897410797,0.728475841250858
1308.31599889342,0.728369902768312
1311.73871806474,0.728750178262522
1315.15713162192,0.729006184200456
1318.57123956497,0.728490923555383
1321.98104189389,0.727861764863037
1325.38653860868,0.72894216415487
1328.78772970934,0.727718730597189
1332.18461519586,0.727931222522671
1336.70709822258,0.728174222838675
1340.09393727613,0.727904847529071
1343.47647071555,0.728836255536452
1346.85469854083,0.728410835789167
1350.22862075199,0.72922332145901
1353.59823734901,0.729671404603346
1356.9635483319,0.72885201200609
1360.32455370065,0.729075899121962
1363.68125345528,0.729162751495748
1368.15015550613,0.727871066752688
1371.49680882778,0.729333685853232
1374.8391565353,0.728328270343696
1378.17719862868,0.728990143062733
1381.51093510794,0.729055727452092
1384.84036597306,0.729237473110744
1388.16549122405,0.729102942783117
1391.48631086091,0.729147775308546
1394.80282488363,0.729308243972022
1399.21814595862,0.731010626155552
1402.52461354837,0.731818288660989
1405.82677552399,0.731641613726453
1409.12463188548,0.732477304899138
1412.41818263283,0.73446781997972
1415.70742776605,0.733760726375796
1418.99236728514,0.734283787183138
1422.2730011901,0.732654948610209
1425.54932948093,0.733587412141465
1429.91106958005,0.733256573690319
1433.1773514379,0.732524771915678
1436.43932768162,0.732327202800951
1439.6969983112,0.731507261217065
1442.95036332666,0.730491027410688
1446.19942272798,0.729707126946701
1449.44417651517,0.730829890827383
1452.68462468823,0.72945006258511
1456.99852463033,0.729820102340522
1460.22892637041,0.729907220555132
1463.45502249637,0.729902412690291
1466.67681300819,0.729614830373349
1469.89429790587,0.727793031248079
1473.10747718943,0.726584126967397
1476.31635085885,0.726016323061213
1479.52091891415,0.725981418513953
1482.72118135531,0.726955771521028
1486.98150032154,0.725376385453985
1490.17171632972,0.726114808273754
1493.35762672377,0.725682447245714
1496.53923150369,0.725443077358894
1499.71653066948,0.72427303267335
1502.88952422114,0.724624927063432
1506.05821215866,0.723710452790359
1509.22259448206,0.724712191656295
1512.38267119132,0.722570624635024
1516.58940918168,0.722447850991329
1519.73943945797,0.722588095119985
1522.88516412012,0.722334835900985
1526.02658316814,0.72109865600302
1529.16369660203,0.720893084209793
1532.29650442179,0.719015332405314
1535.42500662741,0.719791662493656
1538.54920321891,0.719102849637448
1541.66909419627,0.717254770501103
1545.82225121076,0.717793021763495
1548.93209575515,0.718223967007912
1552.0376346854,0.715797656450883
1555.13886800153,0.718028414591399
1558.23579570352,0.716189348797091
1561.32841779137,0.71521131166371
1564.4167342651,0.714808657255354
1567.50074512469,0.713845708594103
1570.58045037016,0.713345489467421
1574.68002640879,0.713566516550139
1577.74968522127,0.712566506995921
1580.81503841963,0.711734770920303
1583.87608600385,0.711179734295766
1586.93282797394,0.712732602359471
1589.9852643299,0.711834586926905
1593.03339507173,0.71078007148215
1596.07722019942,0.710591941951492
1599.11673971298,0.710859027310871
1603.16273477575,0.706867270666836
1606.19220785634,0.709130786968315
1609.21737532279,0.709748890994012
1612.23823717512,0.708872708684093
1615.25479341331,0.708511352838198
1618.26704403737,0.707389937421112
1621.27498904729,0.707622871872906
1624.27862844309,0.709144307422786
1627.27796222475,0.707593921444963
1631.27037631165,0.706193989466229
1634.25966366034,0.709319642854731
1637.2446453949,0.710638569085117
1640.22532151532,0.713679414984523
1643.20169202161,0.715157369370311
1646.17375691377,0.71712725935304
1649.1415161918,0.721777675456111
1652.10496985569,0.723440038732424
1655.06411790546,0.722928989234394
1659.00295101649,0.716478879541673
1661.95205263328,0.706093726853361
1664.89684863594,0.686325421492271
1667.83733902446,0.65924319790409
1670.77352379886,0.621661036992967
1673.70540295912,0.580664757265449
1676.63297650524,0.537931774689311
1679.55624443724,0.490969828687695
1682.4752067551,0.451388569842419
1686.36045889027,0.401238369806289
1689.26937477516,0.379186189469049
1692.17398504592,0.357488300204458
1695.07428970255,0.34935388679828
1697.97028874504,0.344573056815917
1700.8619821734,0.361225446498345
##END=
