##TITLE=Column 1
##JCAMP-DX=4.24
##DATA TYPE=INFRARED SPECTRUM
##Method:,Column 1,Built-In Reference,,,Model Name,NIR-X-XX
##Host Date-Time:,27/10/20 @ 15:0:46,9/7/19 @ 16:39:9,,,GUI Version,2.4.4
##Header Version:,1,1,,,Tiva Version,2.1.0.67
##System Temp (C):,49.47,27.52,,,DLPC Version,2.0.0
##Detector Temp (C),0,0,,,UUID,DE:67:0C:88:67:19:47:21
##Humidity (%):,14.33,73.2,,,Main Board Version,D
##Lamp PD:,2674,2274
##Shift Vector Coefficients:,-6.85384978732833,0.0551332794684546,-0.000110731550088635
##Pixel to Wavelength Coefficients:,1790.66412099084,-0.917492857141292,-0.000239200785115314
##Serial Number:,925R021,925R021
##Scan Config Name:,Column 1,SystemTest
##Scan Config Type:,Column,Column
##Start wavelength (nm):,900,900
##End wavelength (nm):,1700,1700
##Pattern Pixel Width (nm):,7.03,7.03
##Exposure (ms):,0.635,0.635
##Digital Resolution:,228,228
##NPOINTS=228
##Num Repeats:,6,30
##PGA Gain:,64,64
##Total Measurement Time in sec:,1.8970167
##XUNITS=Wavelength(nm)
##YUNITS=Intensity
##FIRSTX=901.630473432251
##LASTX=1700.8619821734
##PEAK TABLE=X+(Y..Y)
901.630473432251,37110
905.531115772228,39957
909.427452498074,42778
913.319483609787,46120
917.207209107368,50200
921.090628990817,54671
924.969743260134,60905
930.13519799724,69749
934.004265833582,77241
937.869028055792,85009
941.72948466387,91708
945.585635657816,97752
949.43748103763,102328
953.285020803312,106991
957.128254954862,110633
960.967183492279,114698
966.07905725352,119306
969.907939357962,123204
973.732515848273,126144
977.552786724452,129123
981.368751986498,132538
985.180411634413,135127
988.987765668195,137439
992.790814087846,139716
996.589556893364,141218
1001.64784967874,143338
1005.43654605128,144756
1009.22093680969,145463
1013.00102195397,146461
1016.77680148412,146936
1020.54827540013,147088
1024.31544370202,147242
1028.07830638977,146847
1031.83686346339,146311
1036.8415752729,145932
1040.59008591354,145574
1044.33429094005,144872
1048.07419035243,144420
1051.80978415068,144075
1055.5410723348,143686
1059.26805490478,143283
1062.99073186063,143325
1066.70910320235,143118
1071.66023403599,143219
1075.36855894474,143635
1079.07257823935,144179
1082.77229191983,145097
1086.46769998618,145861
1090.1588024384,146550
1093.84559927648,148004
1097.52809050043,149267
1101.20627611025,150353
1106.10382596803,152390
1109.77196514487,154425
1113.43579870759,156184
1117.09532665617,157705
1120.75054899062,158904
1124.40146571093,160599
1128.04807681712,161975
1131.69038230917,164195
1135.32838218709,166131
1140.172351069,169393
1143.80030451395,171210
1147.42395234476,173215
1151.04329456145,174857
1154.658331164,177191
1158.26906215241,179533
1161.8754875267,181699
1165.47760728685,183607
1169.07542143287,185581
1173.86580933892,188422
1177.45357705197,190192
1181.03703915088,192828
1184.61619563566,195381
1188.19104650631,198347
1191.76159176283,200975
1195.32783140522,203737
1198.88976543347,206550
1202.44739384759,209380
1207.18420077777,212810
1210.73178275892,215609
1214.27505912594,218384
1217.81402987882,221185
1221.34869501757,223782
1224.87905454219,226289
1228.40510845267,228665
1231.92685674903,231249
1235.44429943125,233926
1240.12752538557,236431
1243.63492163481,238751
1247.13801226993,239873
1250.63679729091,241435
1254.13127669776,243656
1257.62145049048,246670
1261.10731866907,250628
1264.58888123353,253957
1268.06613818385,257357
1272.6957831623,261510
1276.16299367965,264134
1279.62589858286,266239
1283.08449787195,268420
1286.5387915469,271029
1289.98877960772,272194
1293.43446205441,273950
1296.87583888696,275550
1300.31291010539,276794
1304.88897410797,278288
1308.31599889342,279539
1311.73871806474,280344
1315.15713162192,281111
1318.57123956497,281332
1321.98104189389,281674
1325.38653860868,282176
1328.78772970934,282022
1332.18461519586,281817
1336.70709822258,281792
1340.09393727613,281519
1343.47647071555,280369
1346.85469854083,279516
1350.22862075199,278339
1353.59823734901,277109
1356.9635483319,275385
1360.32455370065,273747
1363.68125345528,272514
1368.15015550613,271185
1371.49680882778,269661
1374.8391565353,268015
1378.17719862868,265509
1381.51093510794,262520
1384.84036597306,259722
1388.16549122405,257380
1391.48631086091,254291
1394.80282488363,252701
1399.21814595862,250702
1402.52461354837,249760
1405.82677552399,248687
1409.12463188548,247802
1412.41818263283,247262
1415.70742776605,246937
1418.99236728514,246744
1422.2730011901,246836
1425.54932948093,246679
1429.91106958005,247317
1433.1773514379,247775
1436.43932768162,247635
1439.6969983112,247650
1442.95036332666,248228
1446.19942272798,248248
1449.44417651517,248751
1452.68462468823,248347
1456.99852463033,248294
1460.22892637041,247406
1463.45502249637,246694
1466.67681300819,246000
1469.89429790587,245235
1473.10747718943,244401
1476.31635085885,243942
1479.52091891415,242949
1482.72118135531,241717
1486.98150032154,239919
1490.17171632972,238980
1493.35762672377,237308
1496.53923150369,236343
1499.71653066948,234717
1502.88952422114,232926
1506.05821215866,231550
1509.22259448206,229730
1512.38267119132,227884
1516.58940918168,225956
1519.73943945797,224097
1522.88516412012,221838
1526.02658316814,220158
1529.16369660203,218106
1532.29650442179,216009
1535.42500662741,213863
1538.54920321891,211894
1541.66909419627,209600
1545.82225121076,206508
1548.93209575515,204012
1552.0376346854,201382
1555.13886800153,199233
1558.23579570352,196425
1561.32841779137,193850
1564.4167342651,191472
1567.50074512469,188745
1570.58045037016,185329
1574.68002640879,181362
1577.74968522127,178109
1580.81503841963,174752
1583.87608600385,171679
1586.93282797394,168244
1589.9852643299,164969
1593.03339507173,161015
1596.07722019942,158340
1599.11673971298,154703
1603.16273477575,150424
1606.19220785634,146966
1609.21737532279,143649
1612.23823717512,140316
1615.25479341331,136193
1618.26704403737,133363
1621.27498904729,130257
1624.27862844309,126761
1627.27796222475,123167
1631.27037631165,118550
1634.25966366034,115015
1637.2446453949,111409
1640.22532151532,106956
1643.20169202161,102604
1646.17375691377,98770
1649.1415161918,94672
1652.10496985569,90015
1655.06411790546,85729
1659.00295101649,81135
1661.95205263328,77955
1664.89684863594,76103
1667.83733902446,74045
1670.77352379886,71644
1673.70540295912,69342
1676.63297650524,66050
1679.55624443724,62450
1682.4752067551,57868
1686.36045889027,52126
1689.26937477516,46891
1692.17398504592,41571
1695.07428970255,36290
1697.97028874504,31365
1700.8619821734,26711
##END=
