##TITLE=Column 1
##JCAMP-DX=4.24
##DATA TYPE=INFRARED SPECTRUM
##Method:,Column 1,Built-In Reference,,,Model Name,NIR-X-XX
##Host Date-Time:,27/10/20 @ 15:0:57,9/7/19 @ 16:39:9,,,GUI Version,2.4.4
##Header Version:,1,1,,,Tiva Version,2.1.0.67
##System Temp (C):,49.52,27.52,,,DLPC Version,2.0.0
##Detector Temp (C),0,0,,,UUID,DE:67:0C:88:67:19:47:21
##Humidity (%):,14.23,73.2,,,Main Board Version,D
##Lamp PD:,2672,2274
##Shift Vector Coefficients:,-6.85384978732833,0.0551332794684546,-0.000110731550088635
##Pixel to Wavelength Coefficients:,1790.66412099084,-0.917492857141292,-0.000239200785115314
##Serial Number:,925R021,925R021
##Scan Config Name:,Column 1,SystemTest
##Scan Config Type:,Column,Column
##Start wavelength (nm):,900,900
##End wavelength (nm):,1700,1700
##Pattern Pixel Width (nm):,7.03,7.03
##Exposure (ms):,0.635,0.635
##Digital Resolution:,228,228
##NPOINTS=228
##Num Repeats:,6,30
##PGA Gain:,64,64
##Total Measurement Time in sec:,1.8131482
##XUNITS=Wavelength(nm)
##YUNITS=Absorbance(AU)
##FIRSTX=901.630473432251
##LASTX=1700.8619821734
##PEAK TABLE=X+(Y..Y)
901.630473432251,0.83280582665317
905.531115772228,0.828433707398273
909.427452498074,0.834036430744817
913.319483609787,0.834641529102882
917.207209107368,0.834179334268344
921.090628990817,0.838182320971186
924.969743260134,0.842612025790995
930.13519799724,0.840566787167054
934.004265833582,0.834740402768283
937.869028055792,0.823635506547366
941.72948466387,0.813504674783571
945.585635657816,0.802627116708045
949.43748103763,0.795117905532618
953.285020803312,0.79069136115557
957.128254954862,0.786763812206553
960.967183492279,0.782829797070454
966.07905725352,0.777939240545453
969.907939357962,0.778865810378024
973.732515848273,0.776837773563943
977.552786724452,0.775158055991132
981.368751986498,0.770658986596155
985.180411634413,0.77219590396021
988.987765668195,0.769307238660165
992.790814087846,0.770554224376994
996.589556893364,0.769092084510047
1001.64784967874,0.768423117892066
1005.43654605128,0.76751431512662
1009.22093680969,0.765885248197509
1013.00102195397,0.765205420982698
1016.77680148412,0.766389182945754
1020.54827540013,0.765165024083659
1024.31544370202,0.763667600689602
1028.07830638977,0.761990210962235
1031.83686346339,0.763983187319056
1036.8415752729,0.764158606568905
1040.59008591354,0.763791479894309
1044.33429094005,0.763480969072946
1048.07419035243,0.76335502308161
1051.80978415068,0.766618649008859
1055.5410723348,0.763880227028798
1059.26805490478,0.765025471501811
1062.99073186063,0.76803619123451
1066.70910320235,0.769540707249303
1071.66023403599,0.769160172962801
1075.36855894474,0.76926051099071
1079.07257823935,0.773435080274921
1082.77229191983,0.773219149098656
1086.46769998618,0.774587836284823
1090.1588024384,0.773102825159506
1093.84559927648,0.776992530336451
1097.52809050043,0.777062816753594
1101.20627611025,0.777758759223322
1106.10382596803,0.780279904951185
1109.77196514487,0.780561830807228
1113.43579870759,0.778846289144155
1117.09532665617,0.780683844370097
1120.75054899062,0.783736561605193
1124.40146571093,0.783393658226546
1128.04807681712,0.783886407889238
1131.69038230917,0.784632500026417
1135.32838218709,0.784861405638216
1140.172351069,0.786187474892702
1143.80030451395,0.787033548012541
1147.42395234476,0.785894051056936
1151.04329456145,0.786148357356834
1154.658331164,0.786368425556272
1158.26906215241,0.787910560488851
1161.8754875267,0.788409546891768
1165.47760728685,0.787116811196516
1169.07542143287,0.78637205497806
1173.86580933892,0.786996910627537
1177.45357705197,0.785266077924445
1181.03703915088,0.787022301987948
1184.61619563566,0.78544847574813
1188.19104650631,0.785481063605097
1191.76159176283,0.781504293432621
1195.32783140522,0.781226215137055
1198.88976543347,0.780599594767345
1202.44739384759,0.77787031967515
1207.18420077777,0.775513118542186
1210.73178275892,0.773864150504957
1214.27505912594,0.773562088725998
1217.81402987882,0.770393922040014
1221.34869501757,0.770480416738659
1224.87905454219,0.769820269165016
1228.40510845267,0.769301268636437
1231.92685674903,0.767607897756044
1235.44429943125,0.767787609902248
1240.12752538557,0.765393170893911
1243.63492163481,0.764745659960158
1247.13801226993,0.762226439747825
1250.63679729091,0.762689701898723
1254.13127669776,0.761733763134482
1257.62145049048,0.761580559809311
1261.10731866907,0.759994144525859
1264.58888123353,0.761267471715261
1268.06613818385,0.759448011277347
1272.6957831623,0.75920904730615
1276.16299367965,0.759739982236552
1279.62589858286,0.757695977279261
1283.08449787195,0.758385896021856
1286.5387915469,0.760173059265044
1289.98877960772,0.758194858320781
1293.43446205441,0.758738606357144
1296.87583888696,0.758698179747376
1300.31291010539,0.757335678813324
1304.88897410797,0.757647311846213
1308.31599889342,0.757774713271715
1311.73871806474,0.75838952156453
1315.15713162192,0.757016003896156
1318.57123956497,0.757619818416908
1321.98104189389,0.75810131680264
1325.38653860868,0.758344997511977
1328.78772970934,0.758040033272814
1332.18461519586,0.757262466552683
1336.70709822258,0.757883276212305
1340.09393727613,0.75717094992323
1343.47647071555,0.757742703620429
1346.85469854083,0.75704172290789
1350.22862075199,0.757068382997097
1353.59823734901,0.757604280190778
1356.9635483319,0.758576389154604
1360.32455370065,0.758419453058848
1363.68125345528,0.757364484133452
1368.15015550613,0.756966360929841
1371.49680882778,0.757554747217097
1374.8391565353,0.757711449831888
1378.17719862868,0.757496001039357
1381.51093510794,0.758262046319618
1384.84036597306,0.758500864497225
1388.16549122405,0.758464565667375
1391.48631086091,0.758869159861042
1394.80282488363,0.760068954703241
1399.21814595862,0.7589731029388
1402.52461354837,0.759407910616212
1405.82677552399,0.761682472806484
1409.12463188548,0.760599356279813
1412.41818263283,0.762204169414367
1415.70742776605,0.762438177422793
1418.99236728514,0.763074078489081
1422.2730011901,0.762311575093942
1425.54932948093,0.762136339417537
1429.91106958005,0.761693662225389
1433.1773514379,0.761792033982655
1436.43932768162,0.762204949016404
1439.6969983112,0.760749562152335
1442.95036332666,0.760882905475915
1446.19942272798,0.760427461017203
1449.44417651517,0.760828100099024
1452.68462468823,0.759549342106469
1456.99852463033,0.759865282596185
1460.22892637041,0.760157181321691
1463.45502249637,0.760880703818538
1466.67681300819,0.759005888774199
1469.89429790587,0.758302693167146
1473.10747718943,0.759885184929377
1476.31635085885,0.758165212985969
1479.52091891415,0.758888719603918
1482.72118135531,0.759039295147108
1486.98150032154,0.758717088627336
1490.17171632972,0.758560140020422
1493.35762672377,0.758932730975296
1496.53923150369,0.758849277298522
1499.71653066948,0.760185218227543
1502.88952422114,0.758208316369918
1506.05821215866,0.757667920906856
1509.22259448206,0.757003368573395
1512.38267119132,0.756879838404069
1516.58940918168,0.757165642103673
1519.73943945797,0.754203426242783
1522.88516412012,0.754857126998093
1526.02658316814,0.754922042821803
1529.16369660203,0.752693721641712
1532.29650442179,0.753688238703594
1535.42500662741,0.751909255492701
1538.54920321891,0.750075196026844
1541.66909419627,0.751513223933937
1545.82225121076,0.74950522815606
1548.93209575515,0.749349764519141
1552.0376346854,0.747630686154288
1555.13886800153,0.749131001497677
1558.23579570352,0.744485042562006
1561.32841779137,0.7466817867328
1564.4167342651,0.745591115190114
1567.50074512469,0.743848493345946
1570.58045037016,0.744019360550011
1574.68002640879,0.741696116134158
1577.74968522127,0.741816073123482
1580.81503841963,0.740323746966933
1583.87608600385,0.740666886038872
1586.93282797394,0.738012963248834
1589.9852643299,0.737304076490032
1593.03339507173,0.736261868423195
1596.07722019942,0.737624741857421
1599.11673971298,0.733374248773972
1603.16273477575,0.732332422819931
1606.19220785634,0.733641399314211
1609.21737532279,0.73357899531259
1612.23823717512,0.733855348580718
1615.25479341331,0.730744504287391
1618.26704403737,0.729614919729632
1621.27498904729,0.726222592256839
1624.27862844309,0.725537758025284
1627.27796222475,0.727268357911026
1631.27037631165,0.722602605797113
1634.25966366034,0.724448118784918
1637.2446453949,0.723918330651913
1640.22532151532,0.72405559796015
1643.20169202161,0.725242097217336
1646.17375691377,0.721634840699838
1649.1415161918,0.723185297553265
1652.10496985569,0.727558324595521
1655.06411790546,0.727265088928888
1659.00295101649,0.713182064064093
1661.95205263328,0.703297098896188
1664.89684863594,0.682218045080679
1667.83733902446,0.66073369025249
1670.77352379886,0.626376236059986
1673.70540295912,0.57927232553407
1676.63297650524,0.536292077719451
1679.55624443724,0.492399934775235
1682.4752067551,0.451736111099024
1686.36045889027,0.401641571282473
1689.26937477516,0.380036132011453
1692.17398504592,0.361012871217331
1695.07428970255,0.342222814586072
1697.97028874504,0.359580056351343
1700.8619821734,0.355895498224309
##END=
