##TITLE=Column 1
##JCAMP-DX=4.24
##DATA TYPE=INFRARED SPECTRUM
##Method:,Column 1,Built-In Reference,,,Model Name,NIR-X-XX
##Host Date-Time:,27/10/20 @ 15:0:32,9/7/19 @ 16:39:9,,,GUI Version,2.4.4
##Header Version:,1,1,,,Tiva Version,2.1.0.67
##System Temp (C):,49.36,27.52,,,DLPC Version,2.0.0
##Detector Temp (C),0,0,,,UUID,DE:67:0C:88:67:19:47:21
##Humidity (%):,14.33,73.2,,,Main Board Version,D
##Lamp PD:,2670,2274
##Shift Vector Coefficients:,-6.85384978732833,0.0551332794684546,-0.000110731550088635
##Pixel to Wavelength Coefficients:,1790.66412099084,-0.917492857141292,-0.000239200785115314
##Serial Number:,925R021,925R021
##Scan Config Name:,Column 1,SystemTest
##Scan Config Type:,Column,Column
##Start wavelength (nm):,900,900
##End wavelength (nm):,1700,1700
##Pattern Pixel Width (nm):,7.03,7.03
##Exposure (ms):,0.635,0.635
##Digital Resolution:,228,228
##NPOINTS=228
##Num Repeats:,6,30
##PGA Gain:,64,64
##Total Measurement Time in sec:,1.7991702
##XUNITS=Wavelength(nm)
##YUNITS=Absorbance(AU)
##FIRSTX=901.630473432251
##LASTX=1700.8619821734
##PEAK TABLE=X+(Y..Y)
901.630473432251,0.875970085615076
905.531115772228,0.873254650428344
909.427452498074,0.870732981427647
913.319483609787,0.878184248071207
917.207209107368,0.889137924232926
921.090628990817,0.892875109667462
924.969743260134,0.904492540692764
930.13519799724,0.901710011237294
934.004265833582,0.900292905277937
937.869028055792,0.892023730480093
941.72948466387,0.875867061692432
945.585635657816,0.873449347071078
949.43748103763,0.864849311819907
953.285020803312,0.861341741092364
957.128254954862,0.859145252832127
960.967183492279,0.855262684852192
966.07905725352,0.855899487277131
969.907939357962,0.854206010558993
973.732515848273,0.859018840665466
977.552786724452,0.856317391036398
981.368751986498,0.854358819195729
985.180411634413,0.856177177955991
988.987765668195,0.855501238495943
992.790814087846,0.855198848735336
996.589556893364,0.853863450746879
1001.64784967874,0.854743741104709
1005.43654605128,0.853543275334238
1009.22093680969,0.850350953033363
1013.00102195397,0.847632201760283
1016.77680148412,0.849506131801977
1020.54827540013,0.848512458473161
1024.31544370202,0.847092281501871
1028.07830638977,0.845329589921884
1031.83686346339,0.844635576959339
1036.8415752729,0.844110666315317
1040.59008591354,0.842823306621025
1044.33429094005,0.84262229517953
1048.07419035243,0.83935761084507
1051.80978415068,0.840307785232403
1055.5410723348,0.840112737828346
1059.26805490478,0.839170984539758
1062.99073186063,0.83790017327256
1066.70910320235,0.836001293407928
1071.66023403599,0.838216276696579
1075.36855894474,0.834263017053336
1079.07257823935,0.837109731288912
1082.77229191983,0.83411318114597
1086.46769998618,0.834352287909525
1090.1588024384,0.83491560809373
1093.84559927648,0.835445073272363
1097.52809050043,0.833591889620969
1101.20627611025,0.831722056587533
1106.10382596803,0.831518699192968
1109.77196514487,0.833099543909469
1113.43579870759,0.831818924142385
1117.09532665617,0.834706644136193
1120.75054899062,0.834729739166581
1124.40146571093,0.835564075422986
1128.04807681712,0.835187184962952
1131.69038230917,0.832972208217665
1135.32838218709,0.832924377829156
1140.172351069,0.833698647854805
1143.80030451395,0.833715211717125
1147.42395234476,0.832516798787662
1151.04329456145,0.830677497014609
1154.658331164,0.831354395470789
1158.26906215241,0.830281562688731
1161.8754875267,0.830857657904217
1165.47760728685,0.827984617343221
1169.07542143287,0.831195680293809
1173.86580933892,0.829873503340135
1177.45357705197,0.829603683343345
1181.03703915088,0.82800770916441
1184.61619563566,0.828745449913826
1188.19104650631,0.82718174122651
1191.76159176283,0.826715453633048
1195.32783140522,0.824916440287637
1198.88976543347,0.825205517313572
1202.44739384759,0.825650226431051
1207.18420077777,0.824160901908139
1210.73178275892,0.823306837900727
1214.27505912594,0.822953802336913
1217.81402987882,0.821367629828071
1221.34869501757,0.820514177393335
1224.87905454219,0.820525280852156
1228.40510845267,0.820556723038014
1231.92685674903,0.819736845080755
1235.44429943125,0.818740744241161
1240.12752538557,0.818472167246792
1243.63492163481,0.818423631494126
1247.13801226993,0.818553756836222
1250.63679729091,0.817656957091788
1254.13127669776,0.817778075818358
1257.62145049048,0.817199145783456
1261.10731866907,0.815764620837533
1264.58888123353,0.816481135074878
1268.06613818385,0.817435901380708
1272.6957831623,0.816754154115667
1276.16299367965,0.81763317250407
1279.62589858286,0.815299432183579
1283.08449787195,0.815302236156554
1286.5387915469,0.816298403362638
1289.98877960772,0.815756939350353
1293.43446205441,0.81580752320782
1296.87583888696,0.815053579838642
1300.31291010539,0.815628350659186
1304.88897410797,0.815183953977243
1308.31599889342,0.814080970550728
1311.73871806474,0.815167452784571
1315.15713162192,0.815152307916817
1318.57123956497,0.812911107860106
1321.98104189389,0.81433640167533
1325.38653860868,0.812681434153381
1328.78772970934,0.813366330585894
1332.18461519586,0.814182212680107
1336.70709822258,0.813949200497817
1340.09393727613,0.813743314956139
1343.47647071555,0.813211050332713
1346.85469854083,0.814025262121995
1350.22862075199,0.814076562053872
1353.59823734901,0.814083642366611
1356.9635483319,0.813662625044389
1360.32455370065,0.813635185003062
1363.68125345528,0.81236998321628
1368.15015550613,0.812791943387997
1371.49680882778,0.812898739218923
1374.8391565353,0.813132930830747
1378.17719862868,0.812847410376704
1381.51093510794,0.812455308653019
1384.84036597306,0.814135580131365
1388.16549122405,0.813028377042337
1391.48631086091,0.812609584502745
1394.80282488363,0.813431118014231
1399.21814595862,0.814336948491929
1402.52461354837,0.81433429592082
1405.82677552399,0.815224806628266
1409.12463188548,0.8148681000327
1412.41818263283,0.816261829165544
1415.70742776605,0.817508605631651
1418.99236728514,0.818732425629787
1422.2730011901,0.817719622294335
1425.54932948093,0.817777051470617
1429.91106958005,0.81658734412074
1433.1773514379,0.815452907102615
1436.43932768162,0.813380300255763
1439.6969983112,0.81494785555882
1442.95036332666,0.813727974430977
1446.19942272798,0.813432268208205
1449.44417651517,0.813765997546033
1452.68462468823,0.812956715466837
1456.99852463033,0.813591522666371
1460.22892637041,0.813986866869837
1463.45502249637,0.812907296064835
1466.67681300819,0.812730978241181
1469.89429790587,0.81203279462513
1473.10747718943,0.811942780863385
1476.31635085885,0.812883560667185
1479.52091891415,0.812420225299574
1482.72118135531,0.810703895878449
1486.98150032154,0.810528969719924
1490.17171632972,0.81005880630855
1493.35762672377,0.808792039444722
1496.53923150369,0.809836608973501
1499.71653066948,0.809506221409129
1502.88952422114,0.808300000150842
1506.05821215866,0.809056773818942
1509.22259448206,0.809859388563026
1512.38267119132,0.809060387972002
1516.58940918168,0.809572821270289
1519.73943945797,0.810462225115593
1522.88516412012,0.807491821900757
1526.02658316814,0.809014746424921
1529.16369660203,0.808510119509972
1532.29650442179,0.808467201805296
1535.42500662741,0.808302527194778
1538.54920321891,0.808213839334892
1541.66909419627,0.807306554695485
1545.82225121076,0.80797369791355
1548.93209575515,0.808038736226767
1552.0376346854,0.80668354706806
1555.13886800153,0.808535422183339
1558.23579570352,0.808567765630097
1561.32841779137,0.80520845205909
1564.4167342651,0.80680505068766
1567.50074512469,0.808353201284258
1570.58045037016,0.807856820415828
1574.68002640879,0.808340348079315
1577.74968522127,0.809134273421266
1580.81503841963,0.809695252581641
1583.87608600385,0.809379426198868
1586.93282797394,0.810026358013649
1589.9852643299,0.808395669640251
1593.03339507173,0.80861247285945
1596.07722019942,0.809425234534634
1599.11673971298,0.812326628420303
1603.16273477575,0.808157362172773
1606.19220785634,0.807457410557858
1609.21737532279,0.80931696690134
1612.23823717512,0.814480199199648
1615.25479341331,0.812222631342966
1618.26704403737,0.812850502570777
1621.27498904729,0.814021814792633
1624.27862844309,0.814431672408875
1627.27796222475,0.812122587072494
1631.27037631165,0.81103942843062
1634.25966366034,0.815814633225371
1637.2446453949,0.814653820323412
1640.22532151532,0.819363352300085
1643.20169202161,0.814940423746796
1646.17375691377,0.821330189141662
1649.1415161918,0.820855322559874
1652.10496985569,0.819056427785855
1655.06411790546,0.821111774519373
1659.00295101649,0.817908528490785
1661.95205263328,0.807920958014467
1664.89684863594,0.784591347803258
1667.83733902446,0.76281074603898
1670.77352379886,0.728471681389912
1673.70540295912,0.687104079908188
1676.63297650524,0.639739891932531
1679.55624443724,0.594868743678626
1682.4752067551,0.553425112402139
1686.36045889027,0.504715771750182
1689.26937477516,0.476607703288457
1692.17398504592,0.464214810947664
1695.07428970255,0.454973040478169
1697.97028874504,0.454654280772455
1700.8619821734,0.459256692491116
##END=
