***Scan Config Information***,,,,,,,***Reference Scan Information***,,,,,,,
Scan Config Name:,Column 1,,,,,,Scan Config Name:,Built-in Factory Reference,,,,,,,,
Scan Config Type:,Slew,Num Section:,1,,,,Scan Config Type:,Slew,Num Section:,1,,,,,
Section Config Type:,Column,,,,,,Section Config Type:,Column,,,,,,,
Start Wavelength (nm):,900,,,,,,Start Wavelength (nm):,900,,,,,,,
End Wavelength (nm):,1700,,,,,,End Wavelength (nm):,1700,,,,,,,
Pattern Width (nm):,7.03,,,,,,Pattern Width (nm):,7.03,,,,,,,
Exposure (ms):,0.635,,,,,,Exposure (ms):,0.635,,,,,,,
Digital Resolution:,228,,,,,,Digital Resolution:,228,,,,,,,
Num Repeats:,6,,,,,,Num Repeats:,30,,,,,,,
PGA Gain:,64,,,,,,PGA Gain:,64,,,,,,,
System Temp (C):,49.32,,,,,,System Temp (C):,27.52,,,,,,,
Humidity (%):,14.33,,,,,,Humidity (%):,73.2,,,,,,,
Lamp Intensity:,2671,,,,,,Lamp Intensity:,2274,,,,,,,
Data Date-Time:,27/10/20 @ 15:0:23,,,,,,Data Date-Time:,9/7/19 @ 16:39:9,,,,,,,
Total Measurement Time in sec:,1.8011685,,,,,,,,,,,,,,
,,,,,,,,,,,,,,,
***General Information***,,,,,,,***Calibration Coefficients***,,,,,,,
Model Name:,NIR-X-XX,,,,,,Shift Vector Coefficients:,-6.85384978732833,0.0551332794684546,-0.000110731550088635,,,,,
Serial Number:,925R021,(95UB122GC1A925R021),,,,,Pixel to Wavelength Coefficients:,1790.66412099084,-0.917492857141292,-0.000239200785115314,,,,,
GUI Version:,2.4.4,,,,,,Versions (Cal/Ref/Cfg):,1,3,1,,,,,
TIVA Version:,2.1.0.67,,,,,,***Lamp Usage * **,,,,,,,
DLPC Version:,2.0.0,,,,,,Total Time(HH:MM:SS):,NA,,,,,,
UUID:,DE:67:0C:88:67:19:47:21,,,,,,***Device/Error Status***,,,,,,,
Main Board Version:,D,,,,,,Device Status:,0x00000001,,,,,,
Detector Board Version:,B,,,,,,Error status:,0x00000000,Error Code:,0x00000000000000000000000000000000,,,,
,,,,,,,,,,,,,,,
***Scan Data***,,,,,,,,,,,,,,
Wavelength (nm),Absorbance (AU)
901.630473432251,0.461013946821397
905.531115772228,0.462302890189233
909.427452498074,0.460648475218283
913.319483609787,0.459920004263965
917.207209107368,0.468034567566094
921.090628990817,0.473126770999029
924.969743260134,0.476665138644563
930.13519799724,0.476768634986342
934.004265833582,0.466247776102721
937.869028055792,0.45603421465314
941.72948466387,0.445037229009059
945.585635657816,0.435566938779561
949.43748103763,0.427884751436626
953.285020803312,0.420031342663846
957.128254954862,0.415422159982752
960.967183492279,0.409913401753986
966.07905725352,0.407056589049925
969.907939357962,0.403177147710135
973.732515848273,0.400562623525302
977.552786724452,0.397368311462348
981.368751986498,0.396035760810276
985.180411634413,0.393797975371305
988.987765668195,0.392216566755603
992.790814087846,0.390675124487742
996.589556893364,0.390001651849943
1001.64784967874,0.387699529072337
1005.43654605128,0.387339595348256
1009.22093680969,0.385372454965731
1013.00102195397,0.385201692764736
1016.77680148412,0.38452761961836
1020.54827540013,0.383589872718866
1024.31544370202,0.382742619516059
1028.07830638977,0.382769866695318
1031.83686346339,0.382785087192028
1036.8415752729,0.383854762886468
1040.59008591354,0.383730914547502
1044.33429094005,0.38436138612158
1048.07419035243,0.386265769616414
1051.80978415068,0.387209981580525
1055.5410723348,0.387797951577892
1059.26805490478,0.389027871848665
1062.99073186063,0.39049578667481
1066.70910320235,0.392053456576071
1071.66023403599,0.39341232297991
1075.36855894474,0.395895341778024
1079.07257823935,0.396151333066701
1082.77229191983,0.39798597770012
1086.46769998618,0.398824248300748
1090.1588024384,0.399419001624507
1093.84559927648,0.401296550540691
1097.52809050043,0.401453900276553
1101.20627611025,0.40254034788726
1106.10382596803,0.404996876138183
1109.77196514487,0.406843809118124
1113.43579870759,0.407599225307532
1117.09532665617,0.409133449156649
1120.75054899062,0.412581422828124
1124.40146571093,0.41447412919139
1128.04807681712,0.41725198706464
1131.69038230917,0.41595427996079
1135.32838218709,0.415340723969679
1140.172351069,0.413280394418427
1143.80030451395,0.412552373536723
1147.42395234476,0.413313858260071
1151.04329456145,0.414138493786044
1154.658331164,0.413830687697733
1158.26906215241,0.414693478988659
1161.8754875267,0.415563974693427
1165.47760728685,0.41703821008992
1169.07542143287,0.418251570748
1173.86580933892,0.417999429977726
1177.45357705197,0.418788569352209
1181.03703915088,0.418151743446527
1184.61619563566,0.418211515521249
1188.19104650631,0.416331317090409
1191.76159176283,0.415844587359867
1195.32783140522,0.414818699833291
1198.88976543347,0.412789146760469
1202.44739384759,0.412247418149897
1207.18420077777,0.410046882058035
1210.73178275892,0.40992647959113
1214.27505912594,0.408489893436683
1217.81402987882,0.407886547663199
1221.34869501757,0.406107573343531
1224.87905454219,0.405103272906243
1228.40510845267,0.402846191535007
1231.92685674903,0.402045243946913
1235.44429943125,0.401249820627279
1240.12752538557,0.398818307390212
1243.63492163481,0.397846684995858
1247.13801226993,0.396349275374643
1250.63679729091,0.395801345005293
1254.13127669776,0.394435385591858
1257.62145049048,0.393909825984207
1261.10731866907,0.392657374856832
1264.58888123353,0.392031102514153
1268.06613818385,0.39095934498958
1272.6957831623,0.390320638210384
1276.16299367965,0.390030810222456
1279.62589858286,0.389495000832839
1283.08449787195,0.38852529911206
1286.5387915469,0.388540194013858
1289.98877960772,0.388478909362137
1293.43446205441,0.388030532088291
1296.87583888696,0.388335223251301
1300.31291010539,0.387954076402843
1304.88897410797,0.387899286180344
1308.31599889342,0.387969870889042
1311.73871806474,0.387724974900106
1315.15713162192,0.387316618338252
1318.57123956497,0.387482171414561
1321.98104189389,0.38749943265681
1325.38653860868,0.388036385414478
1328.78772970934,0.387732651025462
1332.18461519586,0.387080040070798
1336.70709822258,0.387816731078806
1340.09393727613,0.388400350845928
1343.47647071555,0.389451680270852
1346.85469854083,0.38983387648293
1350.22862075199,0.390338619369633
1353.59823734901,0.391796907771619
1356.9635483319,0.391288017629683
1360.32455370065,0.391505500188477
1363.68125345528,0.39136557782587
1368.15015550613,0.391772145249272
1371.49680882778,0.392639088682996
1374.8391565353,0.392958017657162
1378.17719862868,0.392869785923044
1381.51093510794,0.393031546392906
1384.84036597306,0.39374643286114
1388.16549122405,0.392879932824632
1391.48631086091,0.393881863922123
1394.80282488363,0.39335113522835
1399.21814595862,0.394287418859238
1402.52461354837,0.395401583470561
1405.82677552399,0.395413759310183
1409.12463188548,0.396466773108142
1412.41818263283,0.396823073466108
1415.70742776605,0.396840387000572
1418.99236728514,0.396330310787065
1422.2730011901,0.396408531649377
1425.54932948093,0.395391698186794
1429.91106958005,0.393776776277335
1433.1773514379,0.393389922718736
1436.43932768162,0.39323737720364
1439.6969983112,0.391760173491894
1442.95036332666,0.39152384241987
1446.19942272798,0.390770360724605
1449.44417651517,0.389432200691944
1452.68462468823,0.389326185392722
1456.99852463033,0.388978086395505
1460.22892637041,0.388691106500482
1463.45502249637,0.38801752203563
1466.67681300819,0.387918324133031
1469.89429790587,0.386823982900025
1473.10747718943,0.386632629820258
1476.31635085885,0.386044724476274
1479.52091891415,0.385879206744522
1482.72118135531,0.385495762097247
1486.98150032154,0.38514427895979
1490.17171632972,0.38505114115402
1493.35762672377,0.383912856967811
1496.53923150369,0.383794752893234
1499.71653066948,0.383398657848682
1502.88952422114,0.382258005127125
1506.05821215866,0.382448481193668
1509.22259448206,0.381600597635196
1512.38267119132,0.381818488170318
1516.58940918168,0.380540718743126
1519.73943945797,0.380403781044003
1522.88516412012,0.380084101141578
1526.02658316814,0.379303918581936
1529.16369660203,0.378501491050918
1532.29650442179,0.377819126109536
1535.42500662741,0.377476736330403
1538.54920321891,0.376428125820655
1541.66909419627,0.375409357552371
1545.82225121076,0.375195671843119
1548.93209575515,0.373483844156455
1552.0376346854,0.372227329436874
1555.13886800153,0.371755878334719
1558.23579570352,0.370208806784124
1561.32841779137,0.369364412313875
1564.4167342651,0.368836089779311
1567.50074512469,0.367292003235024
1570.58045037016,0.366286603360899
1574.68002640879,0.365745863322681
1577.74968522127,0.364115096006987
1580.81503841963,0.363175263340051
1583.87608600385,0.361983195369772
1586.93282797394,0.359712897801525
1589.9852643299,0.359335693489207
1593.03339507173,0.358580298853211
1596.07722019942,0.357391011823425
1599.11673971298,0.356309305748005
1603.16273477575,0.355817476707468
1606.19220785634,0.354540255435337
1609.21737532279,0.354527661376594
1612.23823717512,0.354635937911981
1615.25479341331,0.353472907680541
1618.26704403737,0.352723561179585
1621.27498904729,0.352029849116495
1624.27862844309,0.351584371059494
1627.27796222475,0.35208260400177
1631.27037631165,0.353740938266702
1634.25966366034,0.356051302955668
1637.2446453949,0.360574425308895
1640.22532151532,0.368384990984575
1643.20169202161,0.376377754173908
1646.17375691377,0.386637188773984
1649.1415161918,0.395395005006155
1652.10496985569,0.40456284174271
1655.06411790546,0.409901170987472
1659.00295101649,0.406514544307151
1661.95205263328,0.393158993130145
1664.89684863594,0.366247649499747
1667.83733902446,0.334724161716354
1670.77352379886,0.290359705203997
1673.70540295912,0.24460054571686
1676.63297650524,0.196116855719126
1679.55624443724,0.146393908224295
1682.4752067551,0.0974140702968952
1686.36045889027,0.0453891319095767
1689.26937477516,0.0168078805404259
1692.17398504592,0.00320426170376625
1695.07428970255,-0.00859376800309671
1697.97028874504,-0.00417127042959659
1700.8619821734,-0.000927442121069257
