##TITLE=Column 1
##JCAMP-DX=4.24
##DATA TYPE=INFRARED SPECTRUM
##Method:,Column 1,Built-In Reference,,,Model Name,NIR-X-XX
##Host Date-Time:,27/10/20 @ 15:0:9,9/7/19 @ 16:39:9,,,GUI Version,2.4.4
##Header Version:,1,1,,,Tiva Version,2.1.0.67
##System Temp (C):,49.21,27.52,,,DLPC Version,2.0.0
##Detector Temp (C),0,0,,,UUID,DE:67:0C:88:67:19:47:21
##Humidity (%):,14.43,73.2,,,Main Board Version,D
##Lamp PD:,2669,2274
##Shift Vector Coefficients:,-6.85384978732833,0.0551332794684546,-0.000110731550088635
##Pixel to Wavelength Coefficients:,1790.66412099084,-0.917492857141292,-0.000239200785115314
##Serial Number:,925R021,925R021
##Scan Config Name:,Column 1,SystemTest
##Scan Config Type:,Column,Column
##Start wavelength (nm):,900,900
##End wavelength (nm):,1700,1700
##Pattern Pixel Width (nm):,7.03,7.03
##Exposure (ms):,0.635,0.635
##Digital Resolution:,228,228
##NPOINTS=228
##Num Repeats:,6,30
##PGA Gain:,64,64
##Total Measurement Time in sec:,1.8141559
##XUNITS=Wavelength(nm)
##YUNITS=Reflectance(AU)
##FIRSTX=901.630473432251
##LASTX=1700.8619821734
##PEAK TABLE=X+(Y..Y)
901.630473432251,0.270035542587461
905.531115772228,0.270238846327174
909.427452498074,0.268860662047729
913.319483609787,0.266142763588736
917.207209107368,0.263107162315075
921.090628990817,0.257785380715731
924.969743260134,0.252871719713519
930.13519799724,0.2512801512431
934.004265833582,0.253592130762624
937.869028055792,0.258928142850286
941.72948466387,0.262897792498636
945.585635657816,0.26887267282113
949.43748103763,0.272005246784284
953.285020803312,0.273375782715527
957.128254954862,0.273748762214673
960.967183492279,0.275086319012935
966.07905725352,0.273977679858337
969.907939357962,0.27352789499027
973.732515848273,0.27338185218072
977.552786724452,0.273010807087038
981.368751986498,0.273737864715387
985.180411634413,0.272616520250646
988.987765668195,0.272793298061744
992.790814087846,0.272271785390791
996.589556893364,0.273310920086647
1001.64784967874,0.273251971732471
1005.43654605128,0.274792458611412
1009.22093680969,0.27462239391067
1013.00102195397,0.275264282647831
1016.77680148412,0.275606156640525
1020.54827540013,0.275948116763276
1024.31544370202,0.276049082540599
1028.07830638977,0.276060001610909
1031.83686346339,0.277571204502796
1036.8415752729,0.278662530326153
1040.59008591354,0.278994444922506
1044.33429094005,0.279731562961451
1048.07419035243,0.280620621584535
1051.80978415068,0.281320978327247
1055.5410723348,0.282550501261019
1059.26805490478,0.282454378278189
1062.99073186063,0.284404338268336
1066.70910320235,0.284442164682545
1071.66023403599,0.285814985683242
1075.36855894474,0.286294066734389
1079.07257823935,0.287155715093218
1082.77229191983,0.287312912242551
1086.46769998618,0.287590055955006
1090.1588024384,0.288552743842858
1093.84559927648,0.289641757633267
1097.52809050043,0.288519292865391
1101.20627611025,0.289866246130483
1106.10382596803,0.290091477158452
1109.77196514487,0.290407349706745
1113.43579870759,0.290587535150802
1117.09532665617,0.290686593660098
1120.75054899062,0.290282759792828
1124.40146571093,0.290493918646083
1128.04807681712,0.289170047839095
1131.69038230917,0.289791020504515
1135.32838218709,0.290346162022395
1140.172351069,0.291369360478836
1143.80030451395,0.291527010778774
1147.42395234476,0.292372496648121
1151.04329456145,0.292273594856598
1154.658331164,0.292208788702018
1158.26906215241,0.292737540340721
1161.8754875267,0.29315473162951
1165.47760728685,0.29373652718738
1169.07542143287,0.293682380293429
1173.86580933892,0.293412690922247
1177.45357705197,0.293377099676031
1181.03703915088,0.294221453287197
1184.61619563566,0.294384801239971
1188.19104650631,0.295651145724437
1191.76159176283,0.296466245116717
1195.32783140522,0.297320792909133
1198.88976543347,0.298022035174654
1202.44739384759,0.298747738353075
1207.18420077777,0.299039273463696
1210.73178275892,0.300091095934217
1214.27505912594,0.2999575217978
1217.81402987882,0.300777198582993
1221.34869501757,0.300886411951353
1224.87905454219,0.300484035047419
1228.40510845267,0.301023186169971
1231.92685674903,0.301048550533087
1235.44429943125,0.301154223151921
1240.12752538557,0.301364667838225
1243.63492163481,0.301452103168591
1247.13801226993,0.301428065076927
1250.63679729091,0.301591773703752
1254.13127669776,0.301502081196839
1257.62145049048,0.301570820813376
1261.10731866907,0.301646379868465
1264.58888123353,0.300881956801998
1268.06613818385,0.300292125690847
1272.6957831623,0.301048936378512
1276.16299367965,0.300203182266119
1279.62589858286,0.300353400452024
1283.08449787195,0.300152540808738
1286.5387915469,0.299842335640628
1289.98877960772,0.299817680695273
1293.43446205441,0.299599560259808
1296.87583888696,0.299279341111874
1300.31291010539,0.299053476104409
1304.88897410797,0.299378010495828
1308.31599889342,0.299006130446844
1311.73871806474,0.299496149700677
1315.15713162192,0.299300211569974
1318.57123956497,0.299693849151127
1321.98104189389,0.299123123402638
1325.38653860868,0.29873777139336
1328.78772970934,0.298783788147909
1332.18461519586,0.298704303563165
1336.70709822258,0.299291266279536
1340.09393727613,0.298887871729101
1343.47647071555,0.298579964284973
1346.85469854083,0.298503286991011
1350.22862075199,0.298586897877016
1353.59823734901,0.298504954823093
1356.9635483319,0.298762928251423
1360.32455370065,0.298662818713901
1363.68125345528,0.298645924440557
1368.15015550613,0.298593668490906
1371.49680882778,0.298668741821002
1374.8391565353,0.29826639257068
1378.17719862868,0.298664466771736
1381.51093510794,0.298420791140598
1384.84036597306,0.298358164681651
1388.16549122405,0.298505628784123
1391.48631086091,0.297878246905777
1394.80282488363,0.297343925533622
1399.21814595862,0.29646703143891
1402.52461354837,0.296111414432918
1405.82677552399,0.295568497182135
1409.12463188548,0.295820997560848
1412.41818263283,0.294951636219694
1415.70742776605,0.294301465254606
1418.99236728514,0.29506131081907
1422.2730011901,0.29432027766886
1425.54932948093,0.294983956737662
1429.91106958005,0.295246412866887
1433.1773514379,0.294857768847317
1436.43932768162,0.295734464837763
1439.6969983112,0.295470701367497
1442.95036332666,0.296264420036491
1446.19942272798,0.296615580633948
1449.44417651517,0.296894149566392
1452.68462468823,0.296942359542374
1456.99852463033,0.297498382732401
1460.22892637041,0.297287251089885
1463.45502249637,0.297537293152456
1466.67681300819,0.297574290038805
1469.89429790587,0.298086606243706
1473.10747718943,0.298507950175928
1476.31635085885,0.297554645725664
1479.52091891415,0.298404333450243
1482.72118135531,0.298164536464492
1486.98150032154,0.298633525292301
1490.17171632972,0.298637443290408
1493.35762672377,0.299957762811307
1496.53923150369,0.299354204320044
1499.71653066948,0.299163244991912
1502.88952422114,0.299633374939509
1506.05821215866,0.300561146335038
1509.22259448206,0.300178009472647
1512.38267119132,0.299947759926415
1516.58940918168,0.30102104557793
1519.73943945797,0.300842155879799
1522.88516412012,0.300804608135207
1526.02658316814,0.300584824552634
1529.16369660203,0.300976394272179
1532.29650442179,0.300658371033034
1535.42500662741,0.300592345861305
1538.54920321891,0.300879207150375
1541.66909419627,0.300997769072672
1545.82225121076,0.301568780675791
1548.93209575515,0.301254081544196
1552.0376346854,0.301040325195508
1555.13886800153,0.301316952513946
1558.23579570352,0.30155406461429
1561.32841779137,0.301068182599626
1564.4167342651,0.300365191541217
1567.50074512469,0.300634096904834
1570.58045037016,0.300759013282732
1574.68002640879,0.299867926737339
1577.74968522127,0.299468923549692
1580.81503841963,0.299689775840093
1583.87608600385,0.298948730178435
1586.93282797394,0.297854182177822
1589.9852643299,0.29819332490415
1593.03339507173,0.297211022284911
1596.07722019942,0.296461487080247
1599.11673971298,0.296076811443219
1603.16273477575,0.295571038565005
1606.19220785634,0.294430872829286
1609.21737532279,0.294570909898262
1612.23823717512,0.293904154653458
1615.25479341331,0.293748286262682
1618.26704403737,0.292068675751861
1621.27498904729,0.292184212801522
1624.27862844309,0.291744796133848
1627.27796222475,0.290231848929145
1631.27037631165,0.290263612410333
1634.25966366034,0.28926651492455
1637.2446453949,0.287700352734275
1640.22532151532,0.284300145391302
1643.20169202161,0.283748967853738
1646.17375691377,0.280143505637722
1649.1415161918,0.278615074371143
1652.10496985569,0.275405661378364
1655.06411790546,0.27461311445926
1659.00295101649,0.278077894920275
1661.95205263328,0.284433351821039
1664.89684863594,0.297746392141672
1667.83733902446,0.317209859078296
1670.77352379886,0.34300807614828
1673.70540295912,0.381596280781482
1676.63297650524,0.423338935847157
1679.55624443724,0.469696100369117
1682.4752067551,0.521360267074068
1686.36045889027,0.579464146559175
1689.26937477516,0.623693902378056
1692.17398504592,0.639433763600203
1695.07428970255,0.657543923615067
1697.97028874504,0.655393971443681
1700.8619821734,0.643782066943562
##END=
