##TITLE=Column 1
##JCAMP-DX=4.24
##DATA TYPE=INFRARED SPECTRUM
##Method:,Column 1,Built-In Reference,,,Model Name,NIR-X-XX
##Host Date-Time:,27/10/20 @ 15:0:16,9/7/19 @ 16:39:9,,,GUI Version,2.4.4
##Header Version:,1,1,,,Tiva Version,2.1.0.67
##System Temp (C):,49.27,27.52,,,DLPC Version,2.0.0
##Detector Temp (C),0,0,,,UUID,DE:67:0C:88:67:19:47:21
##Humidity (%):,14.43,73.2,,,Main Board Version,D
##Lamp PD:,2669,2274
##Shift Vector Coefficients:,-6.85384978732833,0.0551332794684546,-0.000110731550088635
##Pixel to Wavelength Coefficients:,1790.66412099084,-0.917492857141292,-0.000239200785115314
##Serial Number:,925R021,925R021
##Scan Config Name:,Column 1,SystemTest
##Scan Config Type:,Column,Column
##Start wavelength (nm):,900,900
##End wavelength (nm):,1700,1700
##Pattern Pixel Width (nm):,7.03,7.03
##Exposure (ms):,0.635,0.635
##Digital Resolution:,228,228
##NPOINTS=228
##Num Repeats:,6,30
##PGA Gain:,64,64
##Total Measurement Time in sec:,1.7891871
##XUNITS=Wavelength(nm)
##YUNITS=Absorbance(AU)
##FIRSTX=901.630473432251
##LASTX=1700.8619821734
##PEAK TABLE=X+(Y..Y)
901.630473432251,0.600104079246172
905.531115772228,0.591442112086756
909.427452498074,0.593424763374649
913.319483609787,0.596299737766815
917.207209107368,0.600044363036885
921.090628990817,0.605763274716878
924.969743260134,0.609646124607918
930.13519799724,0.610479487039147
934.004265833582,0.605218715808744
937.869028055792,0.595296141821926
941.72948466387,0.583709010183702
945.585635657816,0.576671676949612
949.43748103763,0.570451743828539
953.285020803312,0.566489251984873
957.128254954862,0.562885314013424
960.967183492279,0.560472763633173
966.07905725352,0.558006932689548
969.907939357962,0.558739803311626
973.732515848273,0.555801831546111
977.552786724452,0.552521698815202
981.368751986498,0.553027023378168
985.180411634413,0.552745186709475
988.987765668195,0.550271013355625
992.790814087846,0.55063129412707
996.589556893364,0.549607300269839
1001.64784967874,0.551448070619281
1005.43654605128,0.549643758834936
1009.22093680969,0.548398561662849
1013.00102195397,0.548459247616864
1016.77680148412,0.545862012113128
1020.54827540013,0.546260533151383
1024.31544370202,0.54591784119488
1028.07830638977,0.546970293740229
1031.83686346339,0.546537510843089
1036.8415752729,0.546269816510339
1040.59008591354,0.545524860170206
1044.33429094005,0.545364565990993
1048.07419035243,0.544990640860019
1051.80978415068,0.546198089269578
1055.5410723348,0.547422069338207
1059.26805490478,0.546815593801603
1062.99073186063,0.547713809162039
1066.70910320235,0.548746508636743
1071.66023403599,0.548552760825004
1075.36855894474,0.549824907791695
1079.07257823935,0.549943147685196
1082.77229191983,0.549096960411514
1086.46769998618,0.551151667738212
1090.1588024384,0.549374874335039
1093.84559927648,0.551114770089201
1097.52809050043,0.550413975119368
1101.20627611025,0.551947825723293
1106.10382596803,0.55261168491431
1109.77196514487,0.553045990108079
1113.43579870759,0.55350440261618
1117.09532665617,0.553409665807995
1120.75054899062,0.554502873842376
1124.40146571093,0.554500929961757
1128.04807681712,0.55502491631567
1131.69038230917,0.554855396069865
1135.32838218709,0.553449493140009
1140.172351069,0.554092915388837
1143.80030451395,0.553494031349939
1147.42395234476,0.554351708432605
1151.04329456145,0.552768872015324
1154.658331164,0.552317344984827
1158.26906215241,0.553203698150278
1161.8754875267,0.551374441571749
1165.47760728685,0.551449298020611
1169.07542143287,0.551215282359974
1173.86580933892,0.552066562078077
1177.45357705197,0.551751125445465
1181.03703915088,0.551089321034043
1184.61619563566,0.550728588177734
1188.19104650631,0.548744950080977
1191.76159176283,0.548656509628619
1195.32783140522,0.546129575497095
1198.88976543347,0.544893889047523
1202.44739384759,0.543662958391631
1207.18420077777,0.542502043199645
1210.73178275892,0.541795592634688
1214.27505912594,0.540473000615956
1217.81402987882,0.539046982424178
1221.34869501757,0.537993746252218
1224.87905454219,0.538070105808638
1228.40510845267,0.536604950573604
1231.92685674903,0.536884155955481
1235.44429943125,0.535449426136599
1240.12752538557,0.534082814448155
1243.63492163481,0.534335573872654
1247.13801226993,0.533959326488286
1250.63679729091,0.53287154913078
1254.13127669776,0.532072852665514
1257.62145049048,0.532599529383162
1261.10731866907,0.532048247570378
1264.58888123353,0.5319737044729
1268.06613818385,0.531459152183261
1272.6957831623,0.531208588327392
1276.16299367965,0.530774762896441
1279.62589858286,0.530681910438933
1283.08449787195,0.53057443596284
1286.5387915469,0.530292002978622
1289.98877960772,0.530090838978937
1293.43446205441,0.531024662343371
1296.87583888696,0.531263210571647
1300.31291010539,0.530863147947515
1304.88897410797,0.530323919739452
1308.31599889342,0.530577108906512
1311.73871806474,0.530326457124839
1315.15713162192,0.530691526084586
1318.57123956497,0.530578424357152
1321.98104189389,0.530552300176422
1325.38653860868,0.531184365873616
1328.78772970934,0.530817201219957
1332.18461519586,0.530892572734064
1336.70709822258,0.530696083220003
1340.09393727613,0.530995351678641
1343.47647071555,0.530851947356043
1346.85469854083,0.531061598489825
1350.22862075199,0.531899413397057
1353.59823734901,0.531893579540825
1356.9635483319,0.531995662003723
1360.32455370065,0.532279636453123
1363.68125345528,0.531830765148745
1368.15015550613,0.53207978606615
1371.49680882778,0.532198468277392
1374.8391565353,0.532872770434711
1378.17719862868,0.532580332218773
1381.51093510794,0.532517545408941
1384.84036597306,0.533567265970036
1388.16549122405,0.533242716981817
1391.48631086091,0.532304593730028
1394.80282488363,0.534247805459842
1399.21814595862,0.534081896174336
1402.52461354837,0.53455169186301
1405.82677552399,0.53647617394997
1409.12463188548,0.536410969379981
1412.41818263283,0.536925065852757
1415.70742776605,0.536592920356782
1418.99236728514,0.536862247980883
1422.2730011901,0.536125845761693
1425.54932948093,0.536597732345
1429.91106958005,0.535021431318481
1433.1773514379,0.534811785979373
1436.43932768162,0.533836704236779
1439.6969983112,0.533737000523367
1442.95036332666,0.533247865045833
1446.19942272798,0.532630715468751
1449.44417651517,0.533168233859341
1452.68462468823,0.532698284794188
1456.99852463033,0.531890704425783
1460.22892637041,0.532777647355049
1463.45502249637,0.531758944163925
1466.67681300819,0.531488902071209
1469.89429790587,0.531177817403069
1473.10747718943,0.530906742642742
1476.31635085885,0.530661823362052
1479.52091891415,0.530225847191733
1482.72118135531,0.529309942355668
1486.98150032154,0.530027272064243
1490.17171632972,0.529733561791911
1493.35762672377,0.529836857712561
1496.53923150369,0.529099776675165
1499.71653066948,0.528521573212146
1502.88952422114,0.528591098272218
1506.05821215866,0.527429654482704
1509.22259448206,0.528405894763149
1512.38267119132,0.527514216603631
1516.58940918168,0.52647958120818
1519.73943945797,0.526208910660908
1522.88516412012,0.525629171740958
1526.02658316814,0.52586785731978
1529.16369660203,0.525231808891596
1532.29650442179,0.524988828311534
1535.42500662741,0.5241881068208
1538.54920321891,0.523192654200926
1541.66909419627,0.52222060963426
1545.82225121076,0.522699795169809
1548.93209575515,0.521509891066843
1552.0376346854,0.520641260412524
1555.13886800153,0.519669608676236
1558.23579570352,0.519575746268398
1561.32841779137,0.517997330757817
1564.4167342651,0.517171282677296
1567.50074512469,0.515835757336626
1570.58045037016,0.517197396294742
1574.68002640879,0.516254915362899
1577.74968522127,0.514816516930112
1580.81503841963,0.513607978540805
1583.87608600385,0.514234232216635
1586.93282797394,0.512208519436392
1589.9852643299,0.512407897347165
1593.03339507173,0.510797607856907
1596.07722019942,0.510783031471343
1599.11673971298,0.508128833674419
1603.16273477575,0.506925348011237
1606.19220785634,0.508024323470091
1609.21737532279,0.506389816633681
1612.23823717512,0.507359270264326
1615.25479341331,0.505743892240561
1618.26704403737,0.504860315007611
1621.27498904729,0.504535124658606
1624.27862844309,0.504031882017661
1627.27796222475,0.503625345904017
1631.27037631165,0.503201914979516
1634.25966366034,0.504346957164656
1637.2446453949,0.505388597923899
1640.22532151532,0.508143049189363
1643.20169202161,0.510606269688969
1646.17375691377,0.513100536312069
1649.1415161918,0.516676363211181
1652.10496985569,0.519028992876525
1655.06411790546,0.520117056278973
1659.00295101649,0.513261043041008
1661.95205263328,0.498751575700432
1664.89684863594,0.478345852257467
1667.83733902446,0.449581650623958
1670.77352379886,0.416319195819232
1673.70540295912,0.37353250780322
1676.63297650524,0.326768681921854
1679.55624443724,0.28064316180097
1682.4752067551,0.240185805020222
1686.36045889027,0.191648346721682
1689.26937477516,0.166892924109501
1692.17398504592,0.154892282276024
1695.07428970255,0.14531134116571
1697.97028874504,0.146743971564373
1700.8619821734,0.157921312631092
##END=
