##TITLE=Column 1
##JCAMP-DX=4.24
##DATA TYPE=INFRARED SPECTRUM
##Method:,Column 1,Built-In Reference,,,Model Name,NIR-X-XX
##Host Date-Time:,27/10/20 @ 12:53:54,9/7/19 @ 16:39:9,,,GUI Version,2.4.4
##Header Version:,1,1,,,Tiva Version,2.1.0.67
##System Temp (C):,34.57,27.52,,,DLPC Version,2.0.0
##Detector Temp (C),0,0,,,UUID,DE:67:0C:88:67:19:47:21
##Humidity (%):,41.83,73.2,,,Main Board Version,D
##Lamp PD:,2445,2274
##Shift Vector Coefficients:,-6.85384978732833,0.0551332794684546,-0.000110731550088635
##Pixel to Wavelength Coefficients:,1790.66412099084,-0.917492857141292,-0.000239200785115314
##Serial Number:,925R021,925R021
##Scan Config Name:,Column 1,SystemTest
##Scan Config Type:,Column,Column
##Start wavelength (nm):,900,900
##End wavelength (nm):,1700,1700
##Pattern Pixel Width (nm):,7.03,7.03
##Exposure (ms):,0.635,0.635
##Digital Resolution:,228,228
##NPOINTS=228
##Num Repeats:,6,30
##PGA Gain:,64,64
##Total Measurement Time in sec:,1.8540843
##XUNITS=Wavelength(nm)
##YUNITS=Reflectance(AU)
##FIRSTX=901.630473432251
##LASTX=1700.8619821734
##PEAK TABLE=X+(Y..Y)
901.630473432251,0.203689379326551
905.531115772228,0.201261829652997
909.427452498074,0.203567961977441
913.319483609787,0.203212758580839
917.207209107368,0.202715728594778
921.090628990817,0.200915266088954
924.969743260134,0.197339822470481
930.13519799724,0.200292605998423
934.004265833582,0.200822661608118
937.869028055792,0.203607257716123
941.72948466387,0.206089918512524
945.585635657816,0.205902266547733
949.43748103763,0.208247203203011
953.285020803312,0.208433512113926
957.128254954862,0.210335945285909
960.967183492279,0.210298634576184
966.07905725352,0.21008524482148
969.907939357962,0.210535163272807
973.732515848273,0.211435953185121
977.552786724452,0.211443241264989
981.368751986498,0.211494856872611
985.180411634413,0.2106000400952
988.987765668195,0.211722843986261
992.790814087846,0.21113248048838
996.589556893364,0.210553012555992
1001.64784967874,0.212283832999686
1005.43654605128,0.211838237406283
1009.22093680969,0.212914580763167
1013.00102195397,0.213072177565682
1016.77680148412,0.213266387278042
1020.54827540013,0.214773347574678
1024.31544370202,0.21454453426932
1028.07830638977,0.215051572768062
1031.83686346339,0.215793008041725
1036.8415752729,0.216353147610692
1040.59008591354,0.216334891814627
1044.33429094005,0.216300707108299
1048.07419035243,0.216300344254797
1051.80978415068,0.217200620807678
1055.5410723348,0.216841982970195
1059.26805490478,0.21708952580581
1062.99073186063,0.217953046625454
1066.70910320235,0.217224303450355
1071.66023403599,0.216523337044185
1075.36855894474,0.216720690666738
1079.07257823935,0.216825211245151
1082.77229191983,0.217498087627552
1086.46769998618,0.216763995335886
1090.1588024384,0.216609389076107
1093.84559927648,0.216407826953248
1097.52809050043,0.217575357059705
1101.20627611025,0.216627533438467
1106.10382596803,0.215275321510887
1109.77196514487,0.21554939516129
1113.43579870759,0.215345511373187
1117.09532665617,0.214939838292178
1120.75054899062,0.214572282205186
1124.40146571093,0.214034371519473
1128.04807681712,0.213549933844233
1131.69038230917,0.213735686073935
1135.32838218709,0.2130009240821
1140.172351069,0.213142256452063
1143.80030451395,0.213194156265628
1147.42395234476,0.212261013692556
1151.04329456145,0.212468816448173
1154.658331164,0.212266439932809
1158.26906215241,0.211215901690869
1161.8754875267,0.21156937024182
1165.47760728685,0.211221467856639
1169.07542143287,0.211338376688374
1173.86580933892,0.211268934925204
1177.45357705197,0.211027407116438
1181.03703915088,0.21061322568243
1184.61619563566,0.211528233649404
1188.19104650631,0.210708568018063
1191.76159176283,0.212294012557543
1195.32783140522,0.211904252067651
1198.88976543347,0.212153115750581
1202.44739384759,0.212421009474407
1207.18420077777,0.213663549502644
1210.73178275892,0.213798873314423
1214.27505912594,0.213842776061401
1217.81402987882,0.214158955294244
1221.34869501757,0.21440764312154
1224.87905454219,0.214460341942047
1228.40510845267,0.215471923149222
1231.92685674903,0.215807560137457
1235.44429943125,0.216034026542857
1240.12752538557,0.216107263141795
1243.63492163481,0.216343581957556
1247.13801226993,0.216436174375231
1250.63679729091,0.216491579681584
1254.13127669776,0.217103516921035
1257.62145049048,0.217124326897331
1261.10731866907,0.21732214263743
1264.58888123353,0.216953297820488
1268.06613818385,0.217296571576483
1272.6957831623,0.217166193479811
1276.16299367965,0.217273537585951
1279.62589858286,0.217711115677008
1283.08449787195,0.217727576229691
1286.5387915469,0.218066908391756
1289.98877960772,0.217900975488479
1293.43446205441,0.217988719708114
1296.87583888696,0.218312127131619
1300.31291010539,0.218559539321592
1304.88897410797,0.218724483863677
1308.31599889342,0.218854477752873
1311.73871806474,0.218887893308401
1315.15713162192,0.218818060193732
1318.57123956497,0.219105625279128
1321.98104189389,0.219170024601152
1325.38653860868,0.219049821277937
1328.78772970934,0.219074438882609
1332.18461519586,0.21930153379229
1336.70709822258,0.219509576958394
1340.09393727613,0.219306412120631
1343.47647071555,0.219862850142237
1346.85469854083,0.22005402845082
1350.22862075199,0.219403798144691
1353.59823734901,0.219344616511526
1356.9635483319,0.219366662573463
1360.32455370065,0.219598805789452
1363.68125345528,0.219786622437443
1368.15015550613,0.219825961949795
1371.49680882778,0.21905309415205
1374.8391565353,0.219581240234653
1378.17719862868,0.219862260309955
1381.51093510794,0.219417446168367
1384.84036597306,0.22043045356855
1388.16549122405,0.219990763455485
1391.48631086091,0.219542507666157
1394.80282488363,0.219045899534585
1399.21814595862,0.218593873613191
1402.52461354837,0.218201041693749
1405.82677552399,0.217657462750242
1409.12463188548,0.217164153162496
1412.41818263283,0.218013278833759
1415.70742776605,0.217401711881619
1418.99236728514,0.217333679795955
1422.2730011901,0.218121088020448
1425.54932948093,0.218201440625404
1429.91106958005,0.217925057472601
1433.1773514379,0.218049023581938
1436.43932768162,0.219014741936141
1439.6969983112,0.218856256514401
1442.95036332666,0.219190369923457
1446.19942272798,0.219595277608493
1449.44417651517,0.219313388430714
1452.68462468823,0.219498651898273
1456.99852463033,0.220209784797539
1460.22892637041,0.219484318681045
1463.45502249637,0.220010135805099
1466.67681300819,0.220481840704
1469.89429790587,0.219961167230821
1473.10747718943,0.220400255355791
1476.31635085885,0.220395104816878
1479.52091891415,0.220720882757628
1482.72118135531,0.220766270250729
1486.98150032154,0.220930356072504
1490.17171632972,0.220364467891533
1493.35762672377,0.221352050807498
1496.53923150369,0.22153713904938
1499.71653066948,0.221220604703247
1502.88952422114,0.221782320872884
1506.05821215866,0.22174193578921
1509.22259448206,0.22163609777806
1512.38267119132,0.221151781450607
1516.58940918168,0.221589443300575
1519.73943945797,0.221642866372155
1522.88516412012,0.221109616511384
1526.02658316814,0.221078676397081
1529.16369660203,0.220953784453058
1532.29650442179,0.221222184078773
1535.42500662741,0.220702917088749
1538.54920321891,0.220948126430752
1541.66909419627,0.221272858221933
1545.82225121076,0.220788975537869
1548.93209575515,0.221512266304505
1552.0376346854,0.220943162229546
1555.13886800153,0.220799382005363
1558.23579570352,0.221139270777823
1561.32841779137,0.220522782928944
1564.4167342651,0.220186049760743
1567.50074512469,0.220236287851602
1570.58045037016,0.219893208596267
1574.68002640879,0.219699661703478
1577.74968522127,0.220213560975406
1580.81503841963,0.219550313747008
1583.87608600385,0.21898078878994
1586.93282797394,0.21866672593317
1589.9852643299,0.219334306397024
1593.03339507173,0.218209319482014
1596.07722019942,0.217877081739435
1599.11673971298,0.217971610002156
1603.16273477575,0.21711593457874
1606.19220785634,0.21744535404047
1609.21737532279,0.217174052162102
1612.23823717512,0.215764361022108
1615.25479341331,0.218475459281601
1618.26704403737,0.217080690354873
1621.27498904729,0.216761289950719
1624.27862844309,0.216314615780476
1627.27796222475,0.216449033026247
1631.27037631165,0.217139849472397
1634.25966366034,0.216057428554754
1637.2446453949,0.217006664241688
1640.22532151532,0.215739381794809
1643.20169202161,0.216050804631103
1646.17375691377,0.216433592033973
1649.1415161918,0.215505738935302
1652.10496985569,0.215636187863759
1655.06411790546,0.216962468219386
1659.00295101649,0.21858935261828
1661.95205263328,0.222730634128305
1664.89684863594,0.226959864128006
1667.83733902446,0.236666848033081
1670.77352379886,0.244408469305159
1673.70540295912,0.256874211513128
1676.63297650524,0.266590342565302
1679.55624443724,0.271119016199055
1682.4752067551,0.279443218468851
1686.36045889027,0.280012468297936
1689.26937477516,0.279517389637876
1692.17398504592,0.28625745817572
1695.07428970255,0.276644714354078
1697.97028874504,0.281306187202538
1700.8619821734,0.280265086733447
##END=
