##TITLE=Column 1
##JCAMP-DX=4.24
##DATA TYPE=INFRARED SPECTRUM
##Method:,Column 1,Built-In Reference,,,Model Name,NIR-X-XX
##Host Date-Time:,27/10/20 @ 12:54:6,9/7/19 @ 16:39:9,,,GUI Version,2.4.4
##Header Version:,1,1,,,Tiva Version,2.1.0.67
##System Temp (C):,34.87,27.52,,,DLPC Version,2.0.0
##Detector Temp (C),0,0,,,UUID,DE:67:0C:88:67:19:47:21
##Humidity (%):,41.55,73.2,,,Main Board Version,D
##Lamp PD:,2450,2274
##Shift Vector Coefficients:,-6.85384978732833,0.0551332794684546,-0.000110731550088635
##Pixel to Wavelength Coefficients:,1790.66412099084,-0.917492857141292,-0.000239200785115314
##Serial Number:,925R021,925R021
##Scan Config Name:,Column 1,SystemTest
##Scan Config Type:,Column,Column
##Start wavelength (nm):,900,900
##End wavelength (nm):,1700,1700
##Pattern Pixel Width (nm):,7.03,7.03
##Exposure (ms):,0.635,0.635
##Digital Resolution:,228,228
##NPOINTS=228
##Num Repeats:,6,30
##PGA Gain:,64,64
##Total Measurement Time in sec:,1.7891849
##XUNITS=Wavelength(nm)
##YUNITS=Reflectance(AU)
##FIRSTX=901.630473432251
##LASTX=1700.8619821734
##PEAK TABLE=X+(Y..Y)
901.630473432251,0.245478845796085
905.531115772228,0.242649842271293
909.427452498074,0.239816581316732
913.319483609787,0.238298855888131
917.207209107368,0.23050165542098
921.090628990817,0.229890367854556
924.969743260134,0.221967204048337
930.13519799724,0.221929299550641
934.004265833582,0.222058207840751
937.869028055792,0.222563561016976
941.72948466387,0.223238045053353
945.585635657816,0.221463959849112
949.43748103763,0.22049198903944
953.285020803312,0.218470104890486
957.128254954862,0.218162250970328
960.967183492279,0.215550028132465
966.07905725352,0.214571040292739
969.907939357962,0.212677753812928
973.732515848273,0.21195046319732
977.552786724452,0.210027771199759
981.368751986498,0.209653052377136
985.180411634413,0.208852300590633
988.987765668195,0.207549263381937
992.790814087846,0.207117243433052
996.589556893364,0.207007243464709
1001.64784967874,0.206529027278647
1005.43654605128,0.205418098949606
1009.22093680969,0.205960245973869
1013.00102195397,0.206779677097243
1016.77680148412,0.205260767971847
1020.54827540013,0.205798464486827
1024.31544370202,0.206006177891097
1028.07830638977,0.20597599746045
1031.83686346339,0.206417718845731
1036.8415752729,0.206313077803994
1040.59008591354,0.207120251651703
1044.33429094005,0.207330396052679
1048.07419035243,0.207973229976648
1051.80978415068,0.207977813125303
1055.5410723348,0.208515870441816
1059.26805490478,0.209069030602095
1062.99073186063,0.209356668326512
1066.70910320235,0.209508227806558
1071.66023403599,0.210354248601139
1075.36855894474,0.211551842432559
1079.07257823935,0.211310372148976
1082.77229191983,0.21323073074277
1086.46769998618,0.213150982744214
1090.1588024384,0.213346711344776
1093.84559927648,0.213759876570963
1097.52809050043,0.216013772050921
1101.20627611025,0.216101863208925
1106.10382596803,0.217517748695578
1109.77196514487,0.218459035923754
1113.43579870759,0.218961671429156
1117.09532665617,0.22028128780523
1120.75054899062,0.221194013829378
1124.40146571093,0.221262773949352
1128.04807681712,0.220500141998234
1131.69038230917,0.221624055483062
1135.32838218709,0.223070382084087
1140.172351069,0.223521335249823
1143.80030451395,0.224119768889456
1147.42395234476,0.224842963166285
1151.04329456145,0.225582651062334
1154.658331164,0.225546960867672
1158.26906215241,0.225439665071869
1161.8754875267,0.224759013838648
1165.47760728685,0.225642162096823
1169.07542143287,0.22541563812266
1173.86580933892,0.224857643968351
1177.45357705197,0.224316766683649
1181.03703915088,0.223865820838139
1184.61619563566,0.224036211402869
1188.19104650631,0.224257564183654
1191.76159176283,0.22342270884143
1195.32783140522,0.223399640917801
1198.88976543347,0.222524203116563
1202.44739384759,0.2231164826154
1207.18420077777,0.222478968778139
1210.73178275892,0.222804752200045
1214.27505912594,0.222005755881696
1217.81402987882,0.221109292708881
1221.34869501757,0.220519281496047
1224.87905454219,0.220831555803498
1228.40510845267,0.220048226196418
1231.92685674903,0.219521143232483
1235.44429943125,0.218911270975619
1240.12752538557,0.218156449865937
1243.63492163481,0.218488031590047
1247.13801226993,0.217809461410634
1250.63679729091,0.216933231398087
1254.13127669776,0.217396090969415
1257.62145049048,0.216431142712641
1261.10731866907,0.216110793748444
1264.58888123353,0.21528196372383
1268.06613818385,0.214912916961779
1272.6957831623,0.21499559446721
1276.16299367965,0.214762824842492
1279.62589858286,0.214371618382303
1283.08449787195,0.214213980555118
1286.5387915469,0.214107122901455
1289.98877960772,0.213753344971115
1293.43446205441,0.213648409659414
1296.87583888696,0.213152684652341
1300.31291010539,0.213453879618343
1304.88897410797,0.212884758840259
1308.31599889342,0.2138935956562
1311.73871806474,0.213061150285039
1315.15713162192,0.213072483458132
1318.57123956497,0.212721117936038
1321.98104189389,0.212742440284355
1325.38653860868,0.212758701316485
1328.78772970934,0.212610366542871
1332.18461519586,0.212688621810201
1336.70709822258,0.21272616753534
1340.09393727613,0.212407565424451
1343.47647071555,0.212225388816213
1346.85469854083,0.212161866740231
1350.22862075199,0.21259368317093
1353.59823734901,0.211955373118066
1356.9635483319,0.211557886480941
1360.32455370065,0.211530317894175
1363.68125345528,0.211650969558632
1368.15015550613,0.211428471809671
1371.49680882778,0.21166304950751
1374.8391565353,0.211323127458699
1378.17719862868,0.211679690920235
1381.51093510794,0.211696469718798
1384.84036597306,0.21121944121071
1388.16549122405,0.211232993953877
1391.48631086091,0.211005099382437
1394.80282488363,0.209611504688539
1399.21814595862,0.209411642642327
1402.52461354837,0.208915061227673
1405.82677552399,0.208202394570494
1409.12463188548,0.207395959467211
1412.41818263283,0.207044248762812
1415.70742776605,0.207327723777746
1418.99236728514,0.20727948936442
1422.2730011901,0.206784879245995
1425.54932948093,0.20667556587179
1429.91106958005,0.207013255753799
1433.1773514379,0.207656465891111
1436.43932768162,0.207931388487388
1439.6969983112,0.20805815970077
1442.95036332666,0.208484469611613
1446.19942272798,0.208439449451881
1449.44417651517,0.208347282344482
1452.68462468823,0.208365517743934
1456.99852463033,0.209117446484141
1460.22892637041,0.208665225681919
1463.45502249637,0.208550800214468
1466.67681300819,0.208169804118652
1469.89429790587,0.20848435376564
1473.10747718943,0.20851878795077
1476.31635085885,0.208813417753615
1479.52091891415,0.209080880479389
1482.72118135531,0.209059070744805
1486.98150032154,0.209217065379859
1490.17171632972,0.209298846574222
1493.35762672377,0.209806707265564
1496.53923150369,0.209284491781836
1499.71653066948,0.209636680353366
1502.88952422114,0.20976403503689
1506.05821215866,0.209154399642835
1509.22259448206,0.209976477319686
1512.38267119132,0.20927758067566
1516.58940918168,0.209224294167563
1519.73943945797,0.209117658122985
1522.88516412012,0.20930539623856
1526.02658316814,0.209315538671732
1529.16369660203,0.209791868540052
1532.29650442179,0.209142418196464
1535.42500662741,0.209541060728328
1538.54920321891,0.209317997867115
1541.66909419627,0.209166125037329
1545.82225121076,0.208678338409168
1548.93209575515,0.209320007512931
1552.0376346854,0.208422255888123
1555.13886800153,0.208524909194899
1558.23579570352,0.208841202201639
1561.32841779137,0.207970873304222
1564.4167342651,0.208467709073128
1567.50074512469,0.208479074407802
1570.58045037016,0.20770165803483
1574.68002640879,0.207279023767025
1577.74968522127,0.206897923212667
1580.81503841963,0.20678692745708
1583.87608600385,0.206322864193014
1586.93282797394,0.20671859893987
1589.9852643299,0.206107147478168
1593.03339507173,0.206029870967443
1596.07722019942,0.205069839382448
1599.11673971298,0.204217554893871
1603.16273477575,0.203315981493589
1606.19220785634,0.202652718960355
1609.21737532279,0.200681738040199
1612.23823717512,0.202046569348532
1615.25479341331,0.20084178777077
1618.26704403737,0.199568879508287
1621.27498904729,0.199051845874521
1624.27862844309,0.197371300803871
1627.27796222475,0.197191569240302
1631.27037631165,0.195745767199102
1634.25966366034,0.195701936981629
1637.2446453949,0.194384283468876
1640.22532151532,0.191521246721821
1643.20169202161,0.190910733966737
1646.17375691377,0.188933225948162
1649.1415161918,0.186788318954407
1652.10496985569,0.185894891555091
1655.06411790546,0.18398011821162
1659.00295101649,0.182521564868868
1661.95205263328,0.185440931780366
1664.89684863594,0.191050127628299
1667.83733902446,0.195386038413407
1670.77352379886,0.205068437292695
1673.70540295912,0.219138362456524
1676.63297650524,0.227234712850868
1679.55624443724,0.234599422418574
1682.4752067551,0.238205171730889
1686.36045889027,0.241488261380864
1689.26937477516,0.245721332511207
1692.17398504592,0.24076746090551
1695.07428970255,0.240776610532552
1697.97028874504,0.242305658381809
1700.8619821734,0.239555338382604
##END=
