##TITLE=Column 1
##JCAMP-DX=4.24
##DATA TYPE=INFRARED SPECTRUM
##Method:,Column 1,Built-In Reference,,,Model Name,NIR-X-XX
##Host Date-Time:,27/10/20 @ 12:53:48,9/7/19 @ 16:39:9,,,GUI Version,2.4.4
##Header Version:,1,1,,,Tiva Version,2.1.0.67
##System Temp (C):,34.4,27.52,,,DLPC Version,2.0.0
##Detector Temp (C),0,0,,,UUID,DE:67:0C:88:67:19:47:21
##Humidity (%):,42.01,73.2,,,Main Board Version,D
##Lamp PD:,2442,2274
##Shift Vector Coefficients:,-6.85384978732833,0.0551332794684546,-0.000110731550088635
##Pixel to Wavelength Coefficients:,1790.66412099084,-0.917492857141292,-0.000239200785115314
##Serial Number:,925R021,925R021
##Scan Config Name:,Column 1,SystemTest
##Scan Config Type:,Column,Column
##Start wavelength (nm):,900,900
##End wavelength (nm):,1700,1700
##Pattern Pixel Width (nm):,7.03,7.03
##Exposure (ms):,0.635,0.635
##Digital Resolution:,228,228
##NPOINTS=228
##Num Repeats:,6,30
##PGA Gain:,64,64
##Total Measurement Time in sec:,1.8091549
##XUNITS=Wavelength(nm)
##YUNITS=Absorbance(AU)
##FIRSTX=901.630473432251
##LASTX=1700.8619821734
##PEAK TABLE=X+(Y..Y)
901.630473432251,0.642099993643399
905.531115772228,0.641372115143569
909.427452498074,0.635105392132512
913.319483609787,0.637688460643237
917.207209107368,0.644411106800789
921.090628990817,0.643461353135195
924.969743260134,0.648590772080785
930.13519799724,0.648252751291104
934.004265833582,0.641864892057553
937.869028055792,0.639369347914202
941.72948466387,0.63263429240033
945.585635657816,0.630321627474779
949.43748103763,0.631070278867214
953.285020803312,0.630547167772304
957.128254954862,0.626990063675196
960.967183492279,0.627706806213313
966.07905725352,0.628959699543285
969.907939357962,0.629683618331277
973.732515848273,0.629073330666928
977.552786724452,0.629344507958559
981.368751986498,0.628239191279913
985.180411634413,0.630504298575006
988.987765668195,0.628216743321056
992.790814087846,0.629412918577403
996.589556893364,0.629583014372657
1001.64784967874,0.627767435425437
1005.43654605128,0.629524366280999
1009.22093680969,0.629933593873007
1013.00102195397,0.62852054251775
1016.77680148412,0.628214098312605
1020.54827540013,0.629485076951677
1024.31544370202,0.628135287849385
1028.07830638977,0.627741503140364
1031.83686346339,0.627716255507154
1036.8415752729,0.6276667699524
1040.59008591354,0.62681543232581
1044.33429094005,0.627023757074623
1048.07419035243,0.628854954791553
1051.80978415068,0.627801775497389
1055.5410723348,0.628932719220507
1059.26805490478,0.626930804440118
1062.99073186063,0.630276320107369
1066.70910320235,0.629903711111873
1071.66023403599,0.630915006881778
1075.36855894474,0.631176749128531
1079.07257823935,0.632454753403124
1082.77229191983,0.630489923914082
1086.46769998618,0.632176097397128
1090.1588024384,0.635534011023837
1093.84559927648,0.633945876493708
1097.52809050043,0.636508651028693
1101.20627611025,0.63619819953327
1106.10382596803,0.635818928856469
1109.77196514487,0.637832858964907
1113.43579870759,0.637863095595204
1117.09532665617,0.638633935972359
1120.75054899062,0.640756797043644
1124.40146571093,0.641573579822725
1128.04807681712,0.642983098333559
1131.69038230917,0.642827944140501
1135.32838218709,0.641993032438673
1140.172351069,0.641598081895861
1143.80030451395,0.642882069854786
1147.42395234476,0.64166805794819
1151.04329456145,0.640624632982123
1154.658331164,0.64082610204148
1158.26906215241,0.641863087099529
1161.8754875267,0.641519139605867
1165.47760728685,0.641012509528107
1169.07542143287,0.640613316707403
1173.86580933892,0.641650192138816
1177.45357705197,0.64175074730749
1181.03703915088,0.641427026918851
1184.61619563566,0.63985935139882
1188.19104650631,0.640331141027683
1191.76159176283,0.639221806094321
1195.32783140522,0.638667655468935
1198.88976543347,0.637545542289722
1202.44739384759,0.637443421481353
1207.18420077777,0.63623640131285
1210.73178275892,0.636150980424806
1214.27505912594,0.636283067597399
1217.81402987882,0.635484799778928
1221.34869501757,0.63547528678863
1224.87905454219,0.635181258395804
1228.40510845267,0.634698143045354
1231.92685674903,0.634452758969779
1235.44429943125,0.634848958306115
1240.12752538557,0.634565026924474
1243.63492163481,0.634478304218826
1247.13801226993,0.634217046397352
1250.63679729091,0.633752157879276
1254.13127669776,0.6346463037833
1257.62145049048,0.634181667316993
1261.10731866907,0.635125878548569
1264.58888123353,0.635380098367507
1268.06613818385,0.63490703230163
1272.6957831623,0.635403917972643
1276.16299367965,0.63502773017501
1279.62589858286,0.635188452026265
1283.08449787195,0.635829126217895
1286.5387915469,0.635544961450386
1289.98877960772,0.63567711974491
1293.43446205441,0.636043013564911
1296.87583888696,0.636226357463713
1300.31291010539,0.635961183618716
1304.88897410797,0.636462342594581
1308.31599889342,0.636242148861841
1311.73871806474,0.63626149984839
1315.15713162192,0.637136560162873
1318.57123956497,0.636656655744149
1321.98104189389,0.636813488972949
1325.38653860868,0.636261059686687
1328.78772970934,0.637343217534103
1332.18461519586,0.637004205641437
1336.70709822258,0.636956171922359
1340.09393727613,0.638083186554122
1343.47647071555,0.636577555102375
1346.85469854083,0.637936458254084
1350.22862075199,0.638679786492069
1353.59823734901,0.638012200648787
1356.9635483319,0.637986013317771
1360.32455370065,0.63938208218319
1363.68125345528,0.639591747352603
1368.15015550613,0.639486186421121
1371.49680882778,0.639873854812202
1374.8391565353,0.639228746066697
1378.17719862868,0.639237110587429
1381.51093510794,0.639294368675735
1384.84036597306,0.638386420977384
1388.16549122405,0.639027814936581
1391.48631086091,0.640249036821111
1394.80282488363,0.640177257589708
1399.21814595862,0.641635442031124
1402.52461354837,0.642547311649074
1405.82677552399,0.64279207874424
1409.12463188548,0.644647236855012
1412.41818263283,0.644467828090391
1415.70742776605,0.644802325550694
1418.99236728514,0.644256989210344
1422.2730011901,0.644847248947538
1425.54932948093,0.644397802015192
1429.91106958005,0.644268825004827
1433.1773514379,0.643392989476293
1436.43932768162,0.643666687908325
1439.6969983112,0.64309914674052
1442.95036332666,0.642028213055006
1446.19942272798,0.63964916231415
1449.44417651517,0.641120548583871
1452.68462468823,0.641713289914023
1456.99852463033,0.641266791082815
1460.22892637041,0.640412541708529
1463.45502249637,0.639665844104374
1466.67681300819,0.639725271155268
1469.89429790587,0.639330584758556
1473.10747718943,0.639960521331126
1476.31635085885,0.639704243307149
1479.52091891415,0.639501799613087
1482.72118135531,0.639171754315577
1486.98150032154,0.638575564913887
1490.17171632972,0.637702284118787
1493.35762672377,0.637818674114674
1496.53923150369,0.638166408573023
1499.71653066948,0.636890549708351
1502.88952422114,0.637584307940823
1506.05821215866,0.636778251117918
1509.22259448206,0.637985352823055
1512.38267119132,0.637137936234851
1516.58940918168,0.637294938262433
1519.73943945797,0.636855720691316
1522.88516412012,0.635766111901824
1526.02658316814,0.63673141497115
1529.16369660203,0.636513892026771
1532.29650442179,0.637429212287853
1535.42500662741,0.637287389744847
1538.54920321891,0.636418474647591
1541.66909419627,0.636376031888944
1545.82225121076,0.636398985341564
1548.93209575515,0.63571446467726
1552.0376346854,0.636532339491006
1555.13886800153,0.636521390149912
1558.23579570352,0.635195293777221
1561.32841779137,0.63587794695003
1564.4167342651,0.635520356291774
1567.50074512469,0.636288382410676
1570.58045037016,0.634879186009998
1574.68002640879,0.635714991539234
1577.74968522127,0.634462988131032
1580.81503841963,0.635240320616292
1583.87608600385,0.635217439935637
1586.93282797394,0.636075982784851
1589.9852643299,0.637024899090858
1593.03339507173,0.636158985843587
1596.07722019942,0.636086523332575
1599.11673971298,0.636167074404203
1603.16273477575,0.635697518697615
1606.19220785634,0.636239363049061
1609.21737532279,0.636678810306252
1612.23823717512,0.638149057725665
1615.25479341331,0.639599632537902
1618.26704403737,0.637741334508092
1621.27498904729,0.635033902647432
1624.27862844309,0.635761998958746
1627.27796222475,0.638216476486034
1631.27037631165,0.640607274177889
1634.25966366034,0.640925959452119
1637.2446453949,0.640974796455386
1640.22532151532,0.645681664516819
1643.20169202161,0.648086219008554
1646.17375691377,0.653185486478292
1649.1415161918,0.655648340116694
1652.10496985569,0.659469848338384
1655.06411790546,0.661192094750321
1659.00295101649,0.662783942355163
1661.95205263328,0.652391310678677
1664.89684863594,0.642012637618551
1667.83733902446,0.624049190819377
1670.77352379886,0.602385217424666
1673.70540295912,0.576181248556928
1676.63297650524,0.557890114293504
1679.55624443724,0.541218084273457
1682.4752067551,0.526754086215905
1686.36045889027,0.519318306625773
1689.26937477516,0.517772739539879
1692.17398504592,0.518547813560293
1695.07428970255,0.515061890689982
1697.97028874504,0.51884018515946
1700.8619821734,0.535583356933118
##END=
