##TITLE=Column 1
##JCAMP-DX=4.24
##DATA TYPE=INFRARED SPECTRUM
##Method:,Column 1,Built-In Reference,,,Model Name,NIR-X-XX
##Host Date-Time:,27/10/20 @ 12:54:2,9/7/19 @ 16:39:9,,,GUI Version,2.4.4
##Header Version:,1,1,,,Tiva Version,2.1.0.67
##System Temp (C):,34.75,27.52,,,DLPC Version,2.0.0
##Detector Temp (C),0,0,,,UUID,DE:67:0C:88:67:19:47:21
##Humidity (%):,41.69,73.2,,,Main Board Version,D
##Lamp PD:,2448,2274
##Shift Vector Coefficients:,-6.85384978732833,0.0551332794684546,-0.000110731550088635
##Pixel to Wavelength Coefficients:,1790.66412099084,-0.917492857141292,-0.000239200785115314
##Serial Number:,925R021,925R021
##Scan Config Name:,Column 1,SystemTest
##Scan Config Type:,Column,Column
##Start wavelength (nm):,900,900
##End wavelength (nm):,1700,1700
##Pattern Pixel Width (nm):,7.03,7.03
##Exposure (ms):,0.635,0.635
##Digital Resolution:,228,228
##NPOINTS=228
##Num Repeats:,6,30
##PGA Gain:,64,64
##Total Measurement Time in sec:,1.7941815
##XUNITS=Wavelength(nm)
##YUNITS=Reflectance(AU)
##FIRSTX=901.630473432251
##LASTX=1700.8619821734
##PEAK TABLE=X+(Y..Y)
901.630473432251,0.271935063790622
905.531115772228,0.277719693555656
909.427452498074,0.277353817317669
913.319483609787,0.275881197272622
917.207209107368,0.2716427084643
921.090628990817,0.269335464375796
924.969743260134,0.266764372424854
930.13519799724,0.268038494789143
934.004265833582,0.269082857475819
937.869028055792,0.271980351685627
941.72948466387,0.272909648644071
945.585635657816,0.274353655959047
949.43748103763,0.275061292604369
953.285020803312,0.274957726756321
957.128254954862,0.275194304436286
960.967183492279,0.274615907295071
966.07905725352,0.274112989098782
969.907939357962,0.274659023240839
973.732515848273,0.272989054214418
977.552786724452,0.272973132978838
981.368751986498,0.273180856793789
985.180411634413,0.272403193222883
988.987765668195,0.27268486062006
992.790814087846,0.271564527936669
996.589556893364,0.271747547121727
1001.64784967874,0.272132847736427
1005.43654605128,0.272326857339832
1009.22093680969,0.272526566987868
1013.00102195397,0.272019600913634
1016.77680148412,0.272914754935813
1020.54827540013,0.271427592448621
1024.31544370202,0.272671583120072
1028.07830638977,0.272473360781954
1031.83686346339,0.273034238432753
1036.8415752729,0.272043750610094
1040.59008591354,0.273355706623067
1044.33429094005,0.273558471493571
1048.07419035243,0.273706637136185
1051.80978415068,0.272539880617622
1055.5410723348,0.272907701170012
1059.26805490478,0.27228198372611
1062.99073186063,0.273048568687224
1066.70910320235,0.273072257377555
1071.66023403599,0.27359348186463
1075.36855894474,0.273432556470637
1079.07257823935,0.273480943247644
1082.77229191983,0.273211871623279
1086.46769998618,0.273360676344464
1090.1588024384,0.273659775878587
1093.84559927648,0.27326658636838
1097.52809050043,0.273521962140971
1101.20627611025,0.274049413001577
1106.10382596803,0.274510075895757
1109.77196514487,0.27469987170088
1113.43579870759,0.27386733780659
1117.09532665617,0.274756863796417
1120.75054899062,0.273991197860293
1124.40146571093,0.274945531835588
1128.04807681712,0.27501865790754
1131.69038230917,0.274862352434597
1135.32838218709,0.274959978134395
1140.172351069,0.275618389719606
1143.80030451395,0.276072823230227
1147.42395234476,0.275751401454768
1151.04329456145,0.275137291342274
1154.658331164,0.275514817195828
1158.26906215241,0.275148883196279
1161.8754875267,0.275942887602183
1165.47760728685,0.275399399641397
1169.07542143287,0.275507559050722
1173.86580933892,0.274937866704419
1177.45357705197,0.275333206286485
1181.03703915088,0.274525182622068
1184.61619563566,0.274780421833212
1188.19104650631,0.274705474965607
1191.76159176283,0.275255932215954
1195.32783140522,0.275506823842912
1198.88976543347,0.275732233440662
1202.44739384759,0.276412025276968
1207.18420077777,0.276589035384308
1210.73178275892,0.276198723965491
1214.27505912594,0.276775341488921
1217.81402987882,0.276619388208672
1221.34869501757,0.276626016597993
1224.87905454219,0.277534210612674
1228.40510845267,0.276843647300565
1231.92685674903,0.27653217343939
1235.44429943125,0.276605009920713
1240.12752538557,0.276668300189468
1243.63492163481,0.27679479766105
1247.13801226993,0.277206043690475
1250.63679729091,0.276716121506002
1254.13127669776,0.276563913856548
1257.62145049048,0.276471900752685
1261.10731866907,0.276594747403729
1264.58888123353,0.275956150192225
1268.06613818385,0.275312107998327
1272.6957831623,0.275572369617208
1276.16299367965,0.275655221285972
1279.62589858286,0.27533182658722
1283.08449787195,0.275511228849213
1286.5387915469,0.275421190036043
1289.98877960772,0.275544084112824
1293.43446205441,0.275127062609869
1296.87583888696,0.274635710891716
1300.31291010539,0.274987127485183
1304.88897410797,0.274397835513105
1308.31599889342,0.274634120293251
1311.73871806474,0.274899684444271
1315.15713162192,0.274390180664164
1318.57123956497,0.27535712205257
1321.98104189389,0.274680980064405
1325.38653860868,0.274478851114898
1328.78772970934,0.274524140158243
1332.18461519586,0.274072628283512
1336.70709822258,0.274255376935115
1340.09393727613,0.274029752571206
1343.47647071555,0.273768921696879
1346.85469854083,0.274255547285305
1350.22862075199,0.274014048719821
1353.59823734901,0.27316834321585
1356.9635483319,0.273694036994638
1360.32455370065,0.273181636556967
1363.68125345528,0.273429667000875
1368.15015550613,0.273678789967534
1371.49680882778,0.2730560237817
1374.8391565353,0.272647813307568
1378.17719862868,0.273274012783469
1381.51093510794,0.273150127944842
1384.84036597306,0.273019835228799
1388.16549122405,0.272982259902804
1391.48631086091,0.272058174529282
1394.80282488363,0.271804858197492
1399.21814595862,0.271139521780419
1402.52461354837,0.27054427487311
1405.82677552399,0.269706615221532
1409.12463188548,0.268712232258214
1412.41818263283,0.269017456200003
1415.70742776605,0.268729145509938
1418.99236728514,0.268720957746561
1422.2730011901,0.269074485542921
1425.54932948093,0.269490493876834
1429.91106958005,0.269571927213967
1433.1773514379,0.26960500144563
1436.43932768162,0.269814657015143
1439.6969983112,0.270616762053732
1442.95036332666,0.270911324498979
1446.19942272798,0.271346975345183
1449.44417651517,0.27163600795312
1452.68462468823,0.271179771187058
1456.99852463033,0.271779812119504
1460.22892637041,0.272006602968702
1463.45502249637,0.271329626664512
1466.67681300819,0.272214795961228
1469.89429790587,0.272475611216844
1473.10747718943,0.272310227593272
1476.31635085885,0.272385171264291
1479.52091891415,0.272634753335672
1482.72118135531,0.272648806609778
1486.98150032154,0.272590839080721
1490.17171632972,0.273373816196809
1493.35762672377,0.27262646198269
1496.53923150369,0.273131220054453
1499.71653066948,0.273114968271743
1502.88952422114,0.273820840778855
1506.05821215866,0.273196388596598
1509.22259448206,0.273255666105089
1512.38267119132,0.272845417455876
1516.58940918168,0.273269633588554
1519.73943945797,0.273358008658717
1522.88516412012,0.272989098591317
1526.02658316814,0.273331333933153
1529.16369660203,0.273366844315245
1532.29650442179,0.273334443647586
1535.42500662741,0.273589959308415
1538.54920321891,0.27314475480507
1541.66909419627,0.273697893793806
1545.82225121076,0.273128051967979
1548.93209575515,0.273459849163464
1552.0376346854,0.273655536768599
1555.13886800153,0.273419916956971
1558.23579570352,0.273788788063097
1561.32841779137,0.2728106268123
1564.4167342651,0.273332867626798
1567.50074512469,0.273458233598461
1570.58045037016,0.273435337443987
1574.68002640879,0.274157801873674
1577.74968522127,0.274313441865236
1580.81503841963,0.274355158624253
1583.87608600385,0.274183888369824
1586.93282797394,0.274273522319395
1589.9852643299,0.274049844166044
1593.03339507173,0.27295652052875
1596.07722019942,0.272682699208637
1599.11673971298,0.273804303320888
1603.16273477575,0.272133577556735
1606.19220785634,0.273019203622728
1609.21737532279,0.273277697240398
1612.23823717512,0.273010532396883
1615.25479341331,0.272629558541267
1618.26704403737,0.27302798910676
1621.27498904729,0.273440156776852
1624.27862844309,0.271946739856971
1627.27796222475,0.272705734411022
1631.27037631165,0.272421552930498
1634.25966366034,0.271932896264161
1637.2446453949,0.271899058596605
1640.22532151532,0.271441779892005
1643.20169202161,0.270842266788103
1646.17375691377,0.271910235759262
1649.1415161918,0.270340242293755
1652.10496985569,0.269829168320489
1655.06411790546,0.272001177211154
1659.00295101649,0.273682146902501
1661.95205263328,0.277606766500277
1664.89684863594,0.283141145973004
1667.83733902446,0.292997442733555
1670.77352379886,0.306059849918752
1673.70540295912,0.320733806832043
1676.63297650524,0.335777328494061
1679.55624443724,0.343536634345057
1682.4752067551,0.34914276014259
1686.36045889027,0.349183184800011
1689.26937477516,0.351992267568784
1692.17398504592,0.347892212299653
1695.07428970255,0.35009001207757
1697.97028874504,0.343336858804865
1700.8619821734,0.337466406059125
##END=
