##TITLE=Column 1
##JCAMP-DX=4.24
##DATA TYPE=INFRARED SPECTRUM
##Method:,Column 1,Built-In Reference,,,Model Name,NIR-X-XX
##Host Date-Time:,27/10/20 @ 12:53:20,9/7/19 @ 16:39:9,,,GUI Version,2.4.4
##Header Version:,1,1,,,Tiva Version,2.1.0.67
##System Temp (C):,33.73,27.52,,,DLPC Version,2.0.0
##Detector Temp (C),0,0,,,UUID,DE:67:0C:88:67:19:47:21
##Humidity (%):,42.65,73.2,,,Main Board Version,D
##Lamp PD:,2432,2274
##Shift Vector Coefficients:,-6.85384978732833,0.0551332794684546,-0.000110731550088635
##Pixel to Wavelength Coefficients:,1790.66412099084,-0.917492857141292,-0.000239200785115314
##Serial Number:,925R021,925R021
##Scan Config Name:,Column 1,SystemTest
##Scan Config Type:,Column,Column
##Start wavelength (nm):,900,900
##End wavelength (nm):,1700,1700
##Pattern Pixel Width (nm):,7.03,7.03
##Exposure (ms):,0.635,0.635
##Digital Resolution:,228,228
##NPOINTS=228
##Num Repeats:,6,30
##PGA Gain:,64,64
##Total Measurement Time in sec:,1.8001699
##XUNITS=Wavelength(nm)
##YUNITS=Absorbance(AU)
##FIRSTX=901.630473432251
##LASTX=1700.8619821734
##PEAK TABLE=X+(Y..Y)
901.630473432251,0.677224411752962
905.531115772228,0.674651227023733
909.427452498074,0.673213480205921
913.319483609787,0.668916448268084
917.207209107368,0.672038708656526
921.090628990817,0.669102595236196
924.969743260134,0.675091517334068
930.13519799724,0.673407942878075
934.004265833582,0.667253927883987
937.869028055792,0.663341229592795
941.72948466387,0.657827785721515
945.585635657816,0.65622405264831
949.43748103763,0.654253169717189
953.285020803312,0.651666940692335
957.128254954862,0.6484603446796
960.967183492279,0.648135542356907
966.07905725352,0.645515330925049
969.907939357962,0.646526059185419
973.732515848273,0.6446178540696
977.552786724452,0.644309001103956
981.368751986498,0.643568852290157
985.180411634413,0.643584857747811
988.987765668195,0.641823007452285
992.790814087846,0.644420925547142
996.589556893364,0.642812495764562
1001.64784967874,0.642276905249646
1005.43654605128,0.6423367399367
1009.22093680969,0.643597092275515
1013.00102195397,0.645711735444256
1016.77680148412,0.643395161656028
1020.54827540013,0.644340890074868
1024.31544370202,0.643662685182349
1028.07830638977,0.643732610188177
1031.83686346339,0.643846724957295
1036.8415752729,0.645410709465353
1040.59008591354,0.645788020634649
1044.33429094005,0.645765202091577
1048.07419035243,0.645989368704515
1051.80978415068,0.646474405893178
1055.5410723348,0.649965043652206
1059.26805490478,0.649904670037574
1062.99073186063,0.651003863705543
1066.70910320235,0.651585439531653
1071.66023403599,0.654080584721823
1075.36855894474,0.654775206750022
1079.07257823935,0.654490080074525
1082.77229191983,0.655578390747633
1086.46769998618,0.657168856058616
1090.1588024384,0.6588054765158
1093.84559927648,0.659778510824497
1097.52809050043,0.658744079217564
1101.20627611025,0.66116411023163
1106.10382596803,0.663161222780304
1109.77196514487,0.66284002586901
1113.43579870759,0.663560187167843
1117.09532665617,0.668257003626172
1120.75054899062,0.667156346582726
1124.40146571093,0.669205960888612
1128.04807681712,0.669887612858362
1131.69038230917,0.669395201485683
1135.32838218709,0.67069511577939
1140.172351069,0.6703131272042
1143.80030451395,0.671667108945207
1147.42395234476,0.671973533530972
1151.04329456145,0.672042235854638
1154.658331164,0.671264221596785
1158.26906215241,0.673435655239947
1161.8754875267,0.673791958891889
1165.47760728685,0.672096370538504
1169.07542143287,0.675661314301549
1173.86580933892,0.675010791908142
1177.45357705197,0.673362094780726
1181.03703915088,0.674237105215135
1184.61619563566,0.672414415357208
1188.19104650631,0.673699067022951
1191.76159176283,0.672592398515783
1195.32783140522,0.671985164383811
1198.88976543347,0.670902852835611
1202.44739384759,0.670291469222058
1207.18420077777,0.66994920094821
1210.73178275892,0.669499777220539
1214.27505912594,0.668104086406584
1217.81402987882,0.668390552675694
1221.34869501757,0.667270831659502
1224.87905454219,0.666726790813792
1228.40510845267,0.666292605545152
1231.92685674903,0.664562080986486
1235.44429943125,0.665105547717712
1240.12752538557,0.664112286761818
1243.63492163481,0.663177028397526
1247.13801226993,0.663467974438016
1250.63679729091,0.662766297723965
1254.13127669776,0.662633798941134
1257.62145049048,0.662123772345373
1261.10731866907,0.662989700497708
1264.58888123353,0.663313441166009
1268.06613818385,0.662665809212683
1272.6957831623,0.662866690753947
1276.16299367965,0.662882516951175
1279.62589858286,0.662395461079144
1283.08449787195,0.662086562020308
1286.5387915469,0.662927906643977
1289.98877960772,0.663315470013416
1293.43446205441,0.662381461570111
1296.87583888696,0.663820045398351
1300.31291010539,0.664115581889373
1304.88897410797,0.66375209983684
1308.31599889342,0.665089041774324
1311.73871806474,0.664391443217435
1315.15713162192,0.665015402212586
1318.57123956497,0.664332247937864
1321.98104189389,0.666040011694682
1325.38653860868,0.666256194777273
1328.78772970934,0.665593002480496
1332.18461519586,0.665524959025358
1336.70709822258,0.666255060391473
1340.09393727613,0.666840634338629
1343.47647071555,0.667396312711944
1346.85469854083,0.667346212676194
1350.22862075199,0.668065811023413
1353.59823734901,0.668775950753392
1356.9635483319,0.670011265887202
1360.32455370065,0.66876643786592
1363.68125345528,0.670536579410038
1368.15015550613,0.669492579340752
1371.49680882778,0.670638836848203
1374.8391565353,0.669865105072857
1378.17719862868,0.670139132073006
1381.51093510794,0.669733640193763
1384.84036597306,0.670260388784609
1388.16549122405,0.671773449874069
1391.48631086091,0.671064294717249
1394.80282488363,0.671219543557314
1399.21814595862,0.673042260992109
1402.52461354837,0.674285387669031
1405.82677552399,0.674595299722894
1409.12463188548,0.67537854184615
1412.41818263283,0.677176869322032
1415.70742776605,0.676824680108331
1418.99236728514,0.676171755137821
1422.2730011901,0.676640633962212
1425.54932948093,0.675658235928719
1429.91106958005,0.675566507590933
1433.1773514379,0.674720750502748
1436.43932768162,0.673503238727058
1439.6969983112,0.674691534237239
1442.95036332666,0.67471117499667
1446.19942272798,0.672803881395986
1449.44417651517,0.67311438494947
1452.68462468823,0.673290504648298
1456.99852463033,0.673143825071504
1460.22892637041,0.672238720193241
1463.45502249637,0.671877498658662
1466.67681300819,0.673033222030973
1469.89429790587,0.672331434146257
1473.10747718943,0.672197163125979
1476.31635085885,0.671887839890062
1479.52091891415,0.672754956501219
1482.72118135531,0.672746711061347
1486.98150032154,0.671697552709433
1490.17171632972,0.670785804915431
1493.35762672377,0.67124196606394
1496.53923150369,0.671198774965516
1499.71653066948,0.670374263705995
1502.88952422114,0.670890569972122
1506.05821215866,0.670231931340505
1509.22259448206,0.669620160125725
1512.38267119132,0.66857273267945
1516.58940918168,0.66682060508804
1519.73943945797,0.66779123232988
1522.88516412012,0.667992747064932
1526.02658316814,0.667543702695415
1529.16369660203,0.667839870496373
1532.29650442179,0.666275195076126
1535.42500662741,0.666804229171527
1538.54920321891,0.666487145207083
1541.66909419627,0.665317863586352
1545.82225121076,0.665570585102837
1548.93209575515,0.664298166062235
1552.0376346854,0.662469133646921
1555.13886800153,0.662853166346182
1558.23579570352,0.662000891501307
1561.32841779137,0.659767364241713
1564.4167342651,0.660136459715751
1567.50074512469,0.659700509867611
1570.58045037016,0.658803539499807
1574.68002640879,0.659007841508675
1577.74968522127,0.659420040808285
1580.81503841963,0.655590906171777
1583.87608600385,0.65688559581546
1586.93282797394,0.657204116161102
1589.9852643299,0.654987194058054
1593.03339507173,0.654764846820456
1596.07722019942,0.653168282454413
1599.11673971298,0.65384481686232
1603.16273477575,0.651893944741839
1606.19220785634,0.652018527226539
1609.21737532279,0.650402107294823
1612.23823717512,0.652912358295595
1615.25479341331,0.651807826200588
1618.26704403737,0.649452438556269
1621.27498904729,0.650365701637419
1624.27862844309,0.649153376509266
1627.27796222475,0.649010310840337
1631.27037631165,0.647908135522093
1634.25966366034,0.649743382063403
1637.2446453949,0.653348768937466
1640.22532151532,0.656496974816968
1643.20169202161,0.662441205612618
1646.17375691377,0.666685396488384
1649.1415161918,0.67266469445817
1652.10496985569,0.677210627688673
1655.06411790546,0.681308700044653
1659.00295101649,0.680178466236502
1661.95205263328,0.67119351816176
1664.89684863594,0.662006641502058
1667.83733902446,0.64079348775629
1670.77352379886,0.621738468099302
1673.70540295912,0.605839013635755
1676.63297650524,0.587561299754546
1679.55624443724,0.569374864803149
1682.4752067551,0.568737273614275
1686.36045889027,0.563433338331908
1689.26937477516,0.559797715868092
1692.17398504592,0.569773702758741
1695.07428970255,0.556542065643516
1697.97028874504,0.557982291834316
1700.8619821734,0.56403717479555
##END=
