##TITLE=Column 1
##JCAMP-DX=4.24
##DATA TYPE=INFRARED SPECTRUM
##Method:,Column 1,Built-In Reference,,,Model Name,NIR-X-XX
##Host Date-Time:,27/10/20 @ 12:53:27,9/7/19 @ 16:39:9,,,GUI Version,2.4.4
##Header Version:,1,1,,,Tiva Version,2.1.0.67
##System Temp (C):,33.91,27.52,,,DLPC Version,2.0.0
##Detector Temp (C),0,0,,,UUID,DE:67:0C:88:67:19:47:21
##Humidity (%):,42.46,73.2,,,Main Board Version,D
##Lamp PD:,2437,2274
##Shift Vector Coefficients:,-6.85384978732833,0.0551332794684546,-0.000110731550088635
##Pixel to Wavelength Coefficients:,1790.66412099084,-0.917492857141292,-0.000239200785115314
##Serial Number:,925R021,925R021
##Scan Config Name:,Column 1,SystemTest
##Scan Config Type:,Column,Column
##Start wavelength (nm):,900,900
##End wavelength (nm):,1700,1700
##Pattern Pixel Width (nm):,7.03,7.03
##Exposure (ms):,0.635,0.635
##Digital Resolution:,228,228
##NPOINTS=228
##Num Repeats:,6,30
##PGA Gain:,64,64
##Total Measurement Time in sec:,1.8091557
##XUNITS=Wavelength(nm)
##YUNITS=Absorbance(AU)
##FIRSTX=901.630473432251
##LASTX=1700.8619821734
##PEAK TABLE=X+(Y..Y)
901.630473432251,0.5812172939921
905.531115772228,0.582579577765363
909.427452498074,0.586932819353574
913.319483609787,0.588511430469268
917.207209107368,0.597287310701561
921.090628990817,0.602624334388081
924.969743260134,0.608074908180322
930.13519799724,0.607778819346064
934.004265833582,0.608448136845732
937.869028055792,0.604338221569991
941.72948466387,0.601793629680542
945.585635657816,0.602575263811525
949.43748103763,0.60069911160147
953.285020803312,0.602392876408823
957.128254954862,0.604374037849596
960.967183492279,0.603390627241304
966.07905725352,0.605623408491581
969.907939357962,0.605719471583018
973.732515848273,0.6068447520443
977.552786724452,0.609433557177859
981.368751986498,0.608433731347604
985.180411634413,0.610893740352781
988.987765668195,0.611172845935027
992.790814087846,0.610646669902019
996.589556893364,0.61089707767322
1001.64784967874,0.613275401547449
1005.43654605128,0.612058815356666
1009.22093680969,0.613553144621589
1013.00102195397,0.612464855590103
1016.77680148412,0.611970934702729
1020.54827540013,0.61133831239949
1024.31544370202,0.612621590791489
1028.07830638977,0.612423707582366
1031.83686346339,0.611425781674349
1036.8415752729,0.611594946453928
1040.59008591354,0.610822136561978
1044.33429094005,0.610667212214155
1048.07419035243,0.609315462610643
1051.80978415068,0.608147796207748
1055.5410723348,0.607878057627544
1059.26805490478,0.609222210084052
1062.99073186063,0.608334397014141
1066.70910320235,0.608708194006814
1071.66023403599,0.608172708592453
1075.36855894474,0.608358674334481
1079.07257823935,0.608287746536568
1082.77229191983,0.60798181680306
1086.46769998618,0.607464225854363
1090.1588024384,0.60747370599853
1093.84559927648,0.607990010699971
1097.52809050043,0.607218794195354
1101.20627611025,0.606245220762347
1106.10382596803,0.606819809461784
1109.77196514487,0.60712809214836
1113.43579870759,0.607985580903856
1117.09532665617,0.608362301572178
1120.75054899062,0.609761666034706
1124.40146571093,0.611278124303253
1128.04807681712,0.61213772089576
1131.69038230917,0.611546269344977
1135.32838218709,0.611786685986352
1140.172351069,0.609929205773576
1143.80030451395,0.60910483145382
1147.42395234476,0.608246683597945
1151.04329456145,0.608897684593648
1154.658331164,0.608675744666966
1158.26906215241,0.608501624820425
1161.8754875267,0.609378968590914
1165.47760728685,0.609880206488064
1169.07542143287,0.610208436304782
1173.86580933892,0.611228226255315
1177.45357705197,0.612371501246822
1181.03703915088,0.61346229315998
1184.61619563566,0.611736144064515
1188.19104650631,0.612269258899896
1191.76159176283,0.61221592280565
1195.32783140522,0.612277680382531
1198.88976543347,0.612578816548025
1202.44739384759,0.613182734381171
1207.18420077777,0.612936429588754
1210.73178275892,0.613681206965982
1214.27505912594,0.61238448086118
1217.81402987882,0.613598545949502
1221.34869501757,0.613984801034284
1224.87905454219,0.614369622208703
1228.40510845267,0.615206452631296
1231.92685674903,0.615673718189656
1235.44429943125,0.6158826405525
1240.12752538557,0.616309467860662
1243.63492163481,0.615749819808718
1247.13801226993,0.616376004621444
1250.63679729091,0.615814438894992
1254.13127669776,0.616702852936747
1257.62145049048,0.616667870651981
1261.10731866907,0.617547938856513
1264.58888123353,0.617817657837207
1268.06613818385,0.616694185599172
1272.6957831623,0.617565818543034
1276.16299367965,0.618360899629851
1279.62589858286,0.618464684947672
1283.08449787195,0.619107759176198
1286.5387915469,0.618713394101724
1289.98877960772,0.618668194454935
1293.43446205441,0.619289979697358
1296.87583888696,0.619706604510561
1300.31291010539,0.619332348712783
1304.88897410797,0.619784692129383
1308.31599889342,0.619159197549475
1311.73871806474,0.619736594424011
1315.15713162192,0.620575906102207
1318.57123956497,0.619975729079606
1321.98104189389,0.620315049875616
1325.38653860868,0.620963076752952
1328.78772970934,0.62087942765109
1332.18461519586,0.621377802971422
1336.70709822258,0.622042239867886
1340.09393727613,0.621991478929312
1343.47647071555,0.622015025944622
1346.85469854083,0.623190859736193
1350.22862075199,0.624485146785767
1353.59823734901,0.62480102809529
1356.9635483319,0.625054893425329
1360.32455370065,0.625551784992355
1363.68125345528,0.626562159510651
1368.15015550613,0.627352042304026
1371.49680882778,0.627331898149625
1374.8391565353,0.626612143556133
1378.17719862868,0.626860927829466
1381.51093510794,0.627131732210259
1384.84036597306,0.627269223501897
1388.16549122405,0.628805294947958
1391.48631086091,0.628548008457486
1394.80282488363,0.629875687376924
1399.21814595862,0.631683878940564
1402.52461354837,0.632996425241926
1405.82677552399,0.634272745246334
1409.12463188548,0.636666751510191
1412.41818263283,0.635852790248254
1415.70742776605,0.636686237738332
1418.99236728514,0.637914354290891
1422.2730011901,0.637402941097216
1425.54932948093,0.637791711127592
1429.91106958005,0.636130121302831
1433.1773514379,0.637881760248401
1436.43932768162,0.636153622990356
1439.6969983112,0.635977352120755
1442.95036332666,0.635345697655861
1446.19942272798,0.634135506562587
1449.44417651517,0.63563887562578
1452.68462468823,0.63503560062982
1456.99852463033,0.634960293856632
1460.22892637041,0.635343768894856
1463.45502249637,0.635120593211034
1466.67681300819,0.635078880904456
1469.89429790587,0.635085569397719
1473.10747718943,0.635049392363627
1476.31635085885,0.634653205243264
1479.52091891415,0.63487473931205
1482.72118135531,0.634198229624771
1486.98150032154,0.634298566047682
1490.17171632972,0.63448156611025
1493.35762672377,0.633896367192952
1496.53923150369,0.634160131626998
1499.71653066948,0.633632826371572
1502.88952422114,0.634342784415451
1506.05821215866,0.633728336765369
1509.22259448206,0.633598864278766
1512.38267119132,0.632580720391089
1516.58940918168,0.633878683450754
1519.73943945797,0.633947261854274
1522.88516412012,0.634009685127053
1526.02658316814,0.63330278116884
1529.16369660203,0.633543860472892
1532.29650442179,0.634101513424618
1535.42500662741,0.634389127235919
1538.54920321891,0.63470412207902
1541.66909419627,0.634428630559901
1545.82225121076,0.633973864764668
1548.93209575515,0.634745971563871
1552.0376346854,0.634754815884946
1555.13886800153,0.63485180895082
1558.23579570352,0.634761258621641
1561.32841779137,0.635892295491599
1564.4167342651,0.636540999643889
1567.50074512469,0.636818672416766
1570.58045037016,0.638388304817199
1574.68002640879,0.637209716715921
1577.74968522127,0.638853875908627
1580.81503841963,0.639998370206497
1583.87608600385,0.640397576752312
1586.93282797394,0.641001585155605
1589.9852643299,0.641337297643828
1593.03339507173,0.642937938661807
1596.07722019942,0.64308929030408
1599.11673971298,0.643522337372627
1603.16273477575,0.644905185899717
1606.19220785634,0.646383716383068
1609.21737532279,0.648191360349224
1612.23823717512,0.649494112413713
1615.25479341331,0.651583544665996
1618.26704403737,0.652446680401361
1621.27498904729,0.653471047181885
1624.27862844309,0.656295218895337
1627.27796222475,0.658538122703779
1631.27037631165,0.658888854211638
1634.25966366034,0.662851060289111
1637.2446453949,0.666744535559667
1640.22532151532,0.672335864910732
1643.20169202161,0.682197438842257
1646.17375691377,0.689790688233761
1649.1415161918,0.697584447399523
1652.10496985569,0.704277788765555
1655.06411790546,0.710976788215853
1659.00295101649,0.719652065126443
1661.95205263328,0.715843593759109
1664.89684863594,0.702143353402178
1667.83733902446,0.684561139352043
1670.77352379886,0.659219397308831
1673.70540295912,0.634789653383901
1676.63297650524,0.613272522852291
1679.55624443724,0.597244405544209
1682.4752067551,0.595509098738508
1686.36045889027,0.586770588920122
1689.26937477516,0.589526492147982
1692.17398504592,0.578572655877738
1695.07428970255,0.579526360038088
1697.97028874504,0.58029145071155
1700.8619821734,0.590284098661676
##END=
