##TITLE=Column 1
##JCAMP-DX=4.24
##DATA TYPE=INFRARED SPECTRUM
##Method:,Column 1,Built-In Reference,,,Model Name,NIR-X-XX
##Host Date-Time:,27/10/20 @ 12:53:41,9/7/19 @ 16:39:9,,,GUI Version,2.4.4
##Header Version:,1,1,,,Tiva Version,2.1.0.67
##System Temp (C):,34.25,27.52,,,DLPC Version,2.0.0
##Detector Temp (C),0,0,,,UUID,DE:67:0C:88:67:19:47:21
##Humidity (%):,42.19,73.2,,,Main Board Version,D
##Lamp PD:,2441,2274
##Shift Vector Coefficients:,-6.85384978732833,0.0551332794684546,-0.000110731550088635
##Pixel to Wavelength Coefficients:,1790.66412099084,-0.917492857141292,-0.000239200785115314
##Serial Number:,925R021,925R021
##Scan Config Name:,Column 1,SystemTest
##Scan Config Type:,Column,Column
##Start wavelength (nm):,900,900
##End wavelength (nm):,1700,1700
##Pattern Pixel Width (nm):,7.03,7.03
##Exposure (ms):,0.635,0.635
##Digital Resolution:,228,228
##NPOINTS=228
##Num Repeats:,6,30
##PGA Gain:,64,64
##Total Measurement Time in sec:,1.7851918
##XUNITS=Wavelength(nm)
##YUNITS=Reflectance(AU)
##FIRSTX=901.630473432251
##LASTX=1700.8619821734
##PEAK TABLE=X+(Y..Y)
901.630473432251,0.231193271386748
905.531115772228,0.23217665615142
909.427452498074,0.229231515881782
913.319483609787,0.22652644554875
917.207209107368,0.224760068731403
921.090628990817,0.223097670004745
924.969743260134,0.221303542294611
930.13519799724,0.219307245798539
934.004265833582,0.220944636513917
937.869028055792,0.222971567545081
941.72948466387,0.224577977680336
945.585635657816,0.224236692495352
949.43748103763,0.2261920295578
953.285020803312,0.226006631615102
957.128254954862,0.225539610722485
960.967183492279,0.225920608030205
966.07905725352,0.225325183402851
969.907939357962,0.227288397815241
973.732515848273,0.22616587692146
977.552786724452,0.22510548750296
981.368751986498,0.225420054912573
985.180411634413,0.224916082801729
988.987765668195,0.225443963060659
992.790814087846,0.225180846971821
996.589556893364,0.225980906266234
1001.64784967874,0.224984925592726
1005.43654605128,0.225425376064039
1009.22093680969,0.226218318479954
1013.00102195397,0.225336979647212
1016.77680148412,0.226661905077242
1020.54827540013,0.226858011111085
1024.31544370202,0.22671110080937
1028.07830638977,0.227611922619527
1031.83686346339,0.226250335170741
1036.8415752729,0.22668130099496
1040.59008591354,0.227347044144222
1044.33429094005,0.22783293515973
1048.07419035243,0.22805074749031
1051.80978415068,0.228467845686328
1055.5410723348,0.227576375139777
1059.26805490478,0.229013522758701
1062.99073186063,0.229668314366567
1066.70910320235,0.228460504340596
1071.66023403599,0.228946588041983
1075.36855894474,0.229305817863559
1079.07257823935,0.22978496234063
1082.77229191983,0.229626618300081
1086.46769998618,0.229681293501605
1090.1588024384,0.23048708990119
1093.84559927648,0.229401478024851
1097.52809050043,0.230820608218547
1101.20627611025,0.230928099994159
1106.10382596803,0.230128511883708
1109.77196514487,0.230448130498534
1113.43579870759,0.230312143665133
1117.09532665617,0.229598974513784
1120.75054899062,0.229376694009357
1124.40146571093,0.229800187255115
1128.04807681712,0.229691500580101
1131.69038230917,0.22896161605564
1135.32838218709,0.230265641065688
1140.172351069,0.229624782785918
1143.80030451395,0.229420840382631
1147.42395234476,0.229287501451601
1151.04329456145,0.229563262845949
1154.658331164,0.228614089297194
1158.26906215241,0.229254443898922
1161.8754875267,0.228758834802918
1165.47760728685,0.228349819690956
1169.07542143287,0.228382630334305
1173.86580933892,0.227582857502399
1177.45357705197,0.22759924238594
1181.03703915088,0.22658400615148
1184.61619563566,0.227403963044007
1188.19104650631,0.226900172107348
1191.76159176283,0.22694571494229
1195.32783140522,0.226942878111542
1198.88976543347,0.227443381592087
1202.44739384759,0.227633537438612
1207.18420077777,0.22720026348153
1210.73178275892,0.227547963651512
1214.27505912594,0.22749721503353
1217.81402987882,0.228438463921553
1221.34869501757,0.227791084022146
1224.87905454219,0.227716339054245
1228.40510845267,0.227896326641733
1231.92685674903,0.228052131144915
1235.44429943125,0.227962635410217
1240.12752538557,0.227498743644088
1243.63492163481,0.22779404625332
1247.13801226993,0.228556391461991
1250.63679729091,0.228198396042801
1254.13127669776,0.227992097484466
1257.62145049048,0.228120072590962
1261.10731866907,0.228256507155308
1264.58888123353,0.228186854863597
1268.06613818385,0.228210751476984
1272.6957831623,0.227998209815247
1276.16299367965,0.227857562034259
1279.62589858286,0.227958359016506
1283.08449787195,0.22782458349845
1286.5387915469,0.227890300073918
1289.98877960772,0.227280261128295
1293.43446205441,0.228205509498494
1296.87583888696,0.227654294915791
1300.31291010539,0.227586061956202
1304.88897410797,0.227335138814314
1308.31599889342,0.227843715933822
1311.73871806474,0.227319594322594
1315.15713162192,0.227462352989982
1318.57123956497,0.227609240189257
1321.98104189389,0.227734535079589
1325.38653860868,0.22772174906053
1328.78772970934,0.22710802518973
1332.18461519586,0.227978718728915
1336.70709822258,0.22776477283015
1340.09393727613,0.227453473571901
1343.47647071555,0.227231670092818
1346.85469854083,0.226876551756445
1350.22862075199,0.227138824187208
1353.59823734901,0.226980649345023
1356.9635483319,0.226602390166805
1360.32455370065,0.226623886069446
1363.68125345528,0.226660995797513
1368.15015550613,0.226376862514232
1371.49680882778,0.226308505081076
1374.8391565353,0.226081759923896
1378.17719862868,0.225698548726031
1381.51093510794,0.226611143172285
1384.84036597306,0.226286155637145
1388.16549122405,0.225871645926811
1391.48631086091,0.22615234369439
1394.80282488363,0.225122945181924
1399.21814595862,0.224726889151796
1402.52461354837,0.22414037155477
1405.82677552399,0.223566518819751
1409.12463188548,0.222788396359233
1412.41818263283,0.222556037751443
1415.70742776605,0.222718700130567
1418.99236728514,0.222298353673496
1422.2730011901,0.222579473997589
1425.54932948093,0.222779834730431
1429.91106958005,0.223269791354842
1433.1773514379,0.22382718686118
1436.43932768162,0.223430924620982
1439.6969983112,0.223454315241046
1442.95036332666,0.223871657132057
1446.19942272798,0.224491042611773
1449.44417651517,0.225062806938893
1452.68462468823,0.224510675508271
1456.99852463033,0.22514409379714
1460.22892637041,0.224442398903017
1463.45502249637,0.224306835792613
1466.67681300819,0.224968055614917
1469.89429790587,0.224348708211519
1473.10747718943,0.225474709384325
1476.31635085885,0.224756322199104
1479.52091891415,0.225263871027696
1482.72118135531,0.225203919471579
1486.98150032154,0.225758920780886
1490.17171632972,0.225730126455521
1493.35762672377,0.226110262100955
1496.53923150369,0.226150627938509
1499.71653066948,0.226233358218241
1502.88952422114,0.225896477361177
1506.05821215866,0.226064513686323
1509.22259448206,0.226582218125179
1512.38267119132,0.226122600722387
1516.58940918168,0.226109756315215
1519.73943945797,0.226778561580093
1522.88516412012,0.226046196885548
1526.02658316814,0.226015528674731
1529.16369660203,0.226024170973299
1532.29650442179,0.226157417635642
1535.42500662741,0.225707810380647
1538.54920321891,0.226275128268368
1541.66909419627,0.226718428865038
1545.82225121076,0.226205577530022
1548.93209575515,0.226200624151183
1552.0376346854,0.226398503719634
1555.13886800153,0.226165982069242
1558.23579570352,0.225816717163253
1561.32841779137,0.225770096235764
1564.4167342651,0.225636756664455
1567.50074512469,0.225721541549515
1570.58045037016,0.225529644443196
1574.68002640879,0.225607013234028
1577.74968522127,0.225174740270751
1580.81503841963,0.225601072653943
1583.87608600385,0.224926441603018
1586.93282797394,0.224814143950927
1589.9852643299,0.224196598211712
1593.03339507173,0.223837384643223
1596.07722019942,0.224220302570212
1599.11673971298,0.223199943791778
1603.16273477575,0.223174937488458
1606.19220785634,0.221973763813054
1609.21737532279,0.222163016364325
1612.23823717512,0.222940191605107
1615.25479341331,0.221746641074856
1618.26704403737,0.221397516138914
1621.27498904729,0.220574079944667
1624.27862844309,0.219854841858072
1627.27796222475,0.220598196359307
1631.27037631165,0.219850354887104
1634.25966366034,0.218106595594291
1637.2446453949,0.217220240339853
1640.22532151532,0.215897490539254
1643.20169202161,0.214211546571502
1646.17375691377,0.213223019475765
1649.1415161918,0.211245129107091
1652.10496985569,0.20877462558113
1655.06411790546,0.208799653376716
1659.00295101649,0.210146379715954
1661.95205263328,0.213898132741727
1664.89684863594,0.220454297150462
1667.83733902446,0.22547472659013
1670.77352379886,0.234445654886161
1673.70540295912,0.249011995455528
1676.63297650524,0.260930991644947
1679.55624443724,0.266968845028401
1682.4752067551,0.27068409438126
1686.36045889027,0.275662732540841
1689.26937477516,0.276751045711334
1692.17398504592,0.274460866513279
1695.07428970255,0.271973201467539
1697.97028874504,0.262136435748281
1700.8619821734,0.267499389201075
##END=
