***Scan Config Information***,,,,,,,***Reference Scan Information***,,,,,,,
Scan Config Name:,Column 1,,,,,,Scan Config Name:,Built-in Factory Reference,,,,,,,,
Scan Config Type:,Slew,Num Section:,1,,,,Scan Config Type:,Slew,Num Section:,1,,,,,
Section Config Type:,Column,,,,,,Section Config Type:,Column,,,,,,,
Start Wavelength (nm):,900,,,,,,Start Wavelength (nm):,900,,,,,,,
End Wavelength (nm):,1700,,,,,,End Wavelength (nm):,1700,,,,,,,
Pattern Width (nm):,7.03,,,,,,Pattern Width (nm):,7.03,,,,,,,
Exposure (ms):,0.635,,,,,,Exposure (ms):,0.635,,,,,,,
Digital Resolution:,228,,,,,,Digital Resolution:,228,,,,,,,
Num Repeats:,6,,,,,,Num Repeats:,30,,,,,,,
PGA Gain:,64,,,,,,PGA Gain:,64,,,,,,,
System Temp (C):,34.75,,,,,,System Temp (C):,27.52,,,,,,,
Humidity (%):,41.69,,,,,,Humidity (%):,73.2,,,,,,,
Lamp Intensity:,2448,,,,,,Lamp Intensity:,2274,,,,,,,
Data Date-Time:,27/10/20 @ 12:54:2,,,,,,Data Date-Time:,9/7/19 @ 16:39:9,,,,,,,
Total Measurement Time in sec:,1.7941815,,,,,,,,,,,,,,
,,,,,,,,,,,,,,,
***General Information***,,,,,,,***Calibration Coefficients***,,,,,,,
Model Name:,NIR-X-XX,,,,,,Shift Vector Coefficients:,-6.85384978732833,0.0551332794684546,-0.000110731550088635,,,,,
Serial Number:,925R021,(95UB122GC1A925R021),,,,,Pixel to Wavelength Coefficients:,1790.66412099084,-0.917492857141292,-0.000239200785115314,,,,,
GUI Version:,2.4.4,,,,,,Versions (Cal/Ref/Cfg):,1,3,1,,,,,
TIVA Version:,2.1.0.67,,,,,,***Lamp Usage * **,,,,,,,
DLPC Version:,2.0.0,,,,,,Total Time(HH:MM:SS):,NA,,,,,,
UUID:,DE:67:0C:88:67:19:47:21,,,,,,***Device/Error Status***,,,,,,,
Main Board Version:,D,,,,,,Device Status:,0x00000001,,,,,,
Detector Board Version:,B,,,,,,Error status:,0x00000000,Error Code:,0x00000000000000000000000000000000,,,,
,,,,,,,,,,,,,,,
***Scan Data***,,,,,,,,,,,,,,
Wavelength (nm),Absorbance (AU),Reference Signal (unitless),Sample Signal (unitless)
901.630473432251,0.565534790099237,102131,27773
905.531115772228,0.556393322628941,110950,30813
909.427452498074,0.556965852397042,119508,33146
913.319483609787,0.559277897922458,129795,35808
917.207209107368,0.566001947969554,143166,38890
921.090628990817,0.56970645769636,160172,43140
924.969743260134,0.573872172853233,180815,48235
930.13519799724,0.571802829575866,210522,56428
934.004265833582,0.570113969054528,231687,62343
937.869028055792,0.565462468990537,249996,67994
941.72948466387,0.563981109699094,265685,72508
945.585635657816,0.561689248144188,279147,76585
949.43748103763,0.560570520446666,291226,80105
953.285020803312,0.560734071434065,302792,83255
957.128254954862,0.560360558726821,314069,86430
960.967183492279,0.561274309596061,325247,89318
966.07905725352,0.562070384525188,339962,93188
969.907939357962,0.56120612874044,350977,96399
973.732515848273,0.563854766107886,361509,98688
977.552786724452,0.56388009571833,371608,101439
981.368751986498,0.563549737201749,380605,103974
985.180411634413,0.564787805749894,389074,105985
988.987765668195,0.564338973285665,396542,108131
992.790814087846,0.566126958719417,402965,109431
996.589556893364,0.565834367301673,408092,110898
1001.64784967874,0.565219033634884,414610,112829
1005.43654605128,0.564909525684247,417748,113764
1009.22093680969,0.564591154547584,419882,114429
1013.00102195397,0.565399800885179,421613,114687
1016.77680148412,0.563972983883127,422828,115396
1020.54827540013,0.566346005463796,423181,114863
1024.31544370202,0.564360120353958,422798,115285
1028.07830638977,0.564675951482509,422122,115017
1031.83686346339,0.563782889112889,421427,115064
1036.8415752729,0.565361246257709,420017,114263
1040.59008591354,0.5632718552678,418356,114360
1044.33429094005,0.562949831550216,416485,113933
1048.07419035243,0.562714671217308,415390,113695
1051.80978415068,0.564569938653769,414299,112913
1055.5410723348,0.563984208820943,413158,112754
1059.26805490478,0.564981093978396,412194,112233
1062.99073186063,0.563760095681705,411685,112410
1066.70910320235,0.563722419522842,411349,112328
1071.66023403599,0.562894253530663,411406,112558
1075.36855894474,0.56314977706237,412471,112783
1079.07257823935,0.563072930868898,413974,113214
1082.77229191983,0.563500433583239,415714,113578
1086.46769998618,0.56326395968374,417657,114171
1090.1588024384,0.56278903305302,419594,114826
1093.84559927648,0.563413468354847,422591,115480
1097.52809050043,0.563007796739322,425209,116304
1101.20627611025,0.562171123825129,428025,117300
1106.10382596803,0.561441710136958,432567,118744
1109.77196514487,0.56114154341749,436480,119901
1113.43579870759,0.562459759846088,440246,120569
1117.09532665617,0.561051449508021,443887,121961
1120.75054899062,0.562263388939126,447164,122519
1124.40146571093,0.560753333683196,450722,123924
1128.04807681712,0.560637841619125,454231,124922
1131.69038230917,0.5608847408753,457509,125752
1135.32838218709,0.56073051540717,460998,126756
1140.172351069,0.559691808944003,466130,128474
1143.80030451395,0.558976343458754,469905,129728
1147.42395234476,0.55948227166193,473615,130600
1151.04329456145,0.560450542556222,477816,131465
1154.658331164,0.559855039812762,482210,132856
1158.26906215241,0.560432245610148,486791,133940
1161.8754875267,0.559180795347341,491522,135632
1165.47760728685,0.560037010820972,496370,136700
1169.07542143287,0.559866480990123,501518,138172
1173.86580933892,0.560765441428871,508584,139829
1177.45357705197,0.560141407795495,514246,141589
1181.03703915088,0.561417810878116,520200,142808
1184.61619563566,0.561014214089576,526464,144662
1188.19104650631,0.561132684869002,532807,146365
1191.76159176283,0.560263312498292,539596,148527
1195.32783140522,0.559867639931541,546393,150535
1198.88976543347,0.559512461361976,553751,152687
1202.44739384759,0.558443066949697,560985,155063
1207.18420077777,0.558165040302181,570818,157882
1210.73178275892,0.558778332187606,578511,159784
1214.27505912594,0.557872604722238,586183,162241
1217.81402987882,0.558117383529137,593928,164292
1221.34869501757,0.558106977033642,601639,166429
1224.87905454219,0.556683475371735,609460,169146
1228.40510845267,0.557765437743394,617092,170838
1231.92685674903,0.558254332951246,624195,172610
1235.44429943125,0.558139958134096,631507,174678
1240.12752538557,0.558040598146561,640742,177273
1243.63492163481,0.557842076673123,646786,179027
1247.13801226993,0.557197305399297,651721,180661
1250.63679729091,0.55796553808659,656626,181699
1254.13127669776,0.558204487405936,663080,183384
1257.62145049048,0.558349001676381,672260,185861
1261.10731866907,0.558156071497988,682710,188834
1264.58888123353,0.559159922436617,693458,191364
1268.06613818385,0.560174688275293,703122,193578
1272.6957831623,0.559764329305551,715010,197037
1276.16299367965,0.559633776976802,722504,199162
1279.62589858286,0.560143584057803,730050,201006
1283.08449787195,0.55986069616656,736852,203011
1286.5387915469,0.560002649548587,742717,204560
1289.98877960772,0.559808908771105,748138,206145
1293.43446205441,0.560466688548631,753172,207218
1296.87583888696,0.561242992099803,757640,208075
1300.31291010539,0.560687635598827,761312,209351
1304.88897410797,0.561619318724841,765447,210037
1308.31599889342,0.561245507395919,767807,210866
1311.73871806474,0.560825758680323,770070,211692
1315.15713162192,0.561631434363512,771376,211658
1318.57123956497,0.560103686104326,772495,212712
1321.98104189389,0.561171411708138,773541,212477
1325.38653860868,0.56149111277287,774107,212476
1328.78772970934,0.561419460042474,774125,212516
1332.18461519586,0.562134335416391,773638,212033
1336.70709822258,0.561844849075554,773210,212057
1340.09393727613,0.56220228142776,772303,211634
1343.47647071555,0.562615854600941,770544,210951
1346.85469854083,0.561844579319222,768484,210761
1350.22862075199,0.562227170299733,765479,209752
1353.59823734901,0.5635696313568,761783,208095
1356.9635483319,0.562734664513644,757353,207283
1360.32455370065,0.56354849756012,753301,205788
1363.68125345528,0.563154366447848,750032,205081
1368.15015550613,0.562758858991018,745699,204082
1371.49680882778,0.563748238222758,742756,202814
1374.8391565353,0.564397981095682,737941,201198
1378.17719862868,0.563401665933951,730944,199748
1381.51093510794,0.563598591723714,722577,197372
1384.84036597306,0.563805799781638,714688,195124
1388.16549122405,0.563865575218057,708057,193287
1391.48631086091,0.56533822032002,702438,191104
1394.80282488363,0.565742785022558,697872,189685
1399.21814595862,0.566807174266966,693949,188157
1402.52461354837,0.567761651963608,692334,187307
1405.82677552399,0.5691084012706,691481,186497
1409.12463188548,0.570712563260442,690404,185520
1412.41818263283,0.570219538267607,689669,185533
1415.70742776605,0.570685228811698,689300,185235
1418.99236728514,0.570698461297588,688867,185113
1422.2730011901,0.570127481401086,688590,185282
1425.54932948093,0.56945654969672,688451,185531
1429.91106958005,0.569325336509359,688154,185507
1433.1773514379,0.569272055459821,688281,185564
1436.43932768162,0.568934462047729,687698,185551
1439.6969983112,0.567645306622415,687899,186157
1442.95036332666,0.567172840427806,687845,186345
1446.19942272798,0.56647501505822,687533,186560
1449.44417651517,0.566012660684571,687026,186621
1452.68462468823,0.566742710046489,686150,186070
1456.99852463033,0.565782805921105,684797,186114
1460.22892637041,0.565420553325856,683329,185870
1463.45502249637,0.566502782742541,680755,184709
1466.67681300819,0.56508827285172,678523,184704
1469.89429790587,0.564672364535824,676233,184257
1473.10747718943,0.564936046857221,673570,183420
1476.31635085885,0.564816539245992,670455,182622
1479.52091891415,0.56441878452523,667182,181897
1482.72118135531,0.564396398890135,663865,181002
1486.98150032154,0.564488743525352,658995,179636
1490.17171632972,0.563243084595575,655092,179085
1493.35762672377,0.564431992465742,651085,177503
1496.53923150369,0.563628655325533,646799,176661
1499.71653066948,0.5636544973715,642960,175602
1502.88952422114,0.562533500355408,638527,174842
1506.05821215866,0.563525045923653,633881,173174
1509.22259448206,0.563430823952235,629180,171927
1512.38267119132,0.564083335963074,624042,170267
1516.58940918168,0.563408625525191,616329,168424
1519.73943945797,0.563268197918984,611407,167133
1522.88516412012,0.563854695509302,605885,165400
1526.02658316814,0.563310579159023,600180,164048
1529.16369660203,0.563254160595259,594432,162498
1532.29650442179,0.56330563818092,588422,160836
1535.42500662741,0.562899845171826,582430,159347
1538.54920321891,0.563607134820225,575746,157262
1541.66909419627,0.562728544633162,569270,155808
1545.82225121076,0.563633692795996,560499,153088
1548.93209575515,0.563106430086699,553712,151418
1552.0376346854,0.562795760517185,545887,149385
1555.13886800153,0.5631698529377,538516,147241
1558.23579570352,0.562584340650635,531059,145398
1561.32841779137,0.564138716581345,523506,142818
1564.4167342651,0.563308142289424,515346,140861
1567.50074512469,0.563108995849244,507178,138692
1570.58045037016,0.563145360049071,498542,136319
1574.68002640879,0.561999390625027,486851,133474
1577.74968522127,0.561752910642403,477709,131042
1580.81503841963,0.561686869471967,468371,128500
1583.87608600385,0.561958068866932,459159,125894
1586.93282797394,0.56181611607615,449945,123408
1589.9852643299,0.562170440546155,440533,120728
1593.03339507173,0.563906526579375,431054,117659
1596.07722019942,0.564342415694505,422183,115122
1599.11673971298,0.562559730439322,412751,113013
1603.16273477575,0.565217868922465,400726,109051
1606.19220785634,0.563806804482812,391749,106955
1609.21737532279,0.563395810534422,382845,104623
1612.23823717512,0.563820598110843,373894,102077
1615.25479341331,0.564427059669947,364700,99428
1618.26704403737,0.563792829546993,355817,97148
1621.27498904729,0.563137705620623,346990,94881
1624.27862844309,0.565516143212533,338114,91949
1627.27796222475,0.564305729689908,329223,89781
1631.27037631165,0.564758535714839,317284,86435
1634.25966366034,0.565538251765857,308418,83869
1637.2446453949,0.565592296079317,299659,81477
1640.22532151532,0.56632330560748,290939,78973
1643.20169202161,0.567283560073827,282179,76426
1646.17375691377,0.565574443570666,273160,74275
1649.1415161918,0.568089301303655,263812,71319
1652.10496985569,0.56891110523517,254461,68661
1655.06411790546,0.565429216351088,244646,66544
1659.00295101649,0.562753531981967,229540,62821
1661.95205263328,0.556569952417766,216360,60063
1664.89684863594,0.547997014525491,201366,57015
1667.83733902446,0.533136170129005,183790,53850
1670.77352379886,0.514193639048229,164311,50289
1673.70540295912,0.493855261004526,143471,46016
1676.63297650524,0.473948630539604,123159,41354
1679.55624443724,0.464026943479076,104574,35925
1682.4752067551,0.456996959101189,88365,30852
1686.36045889027,0.45694667826658,70579,24645
1689.26937477516,0.453466876831795,60007,21122
1692.17398504592,0.458555292991826,51286,17842
1695.07428970255,0.455820279299157,43883,15363
1697.97028874504,0.464279570543699,37820,12985
1700.8619821734,0.471769453616084,32744,11050
