***Scan Config Information***,,,,,,,***Reference Scan Information***,,,,,,,
Scan Config Name:,Column 1,,,,,,Scan Config Name:,Built-in Factory Reference,,,,,,,,
Scan Config Type:,Slew,Num Section:,1,,,,Scan Config Type:,Slew,Num Section:,1,,,,,
Section Config Type:,Column,,,,,,Section Config Type:,Column,,,,,,,
Start Wavelength (nm):,900,,,,,,Start Wavelength (nm):,900,,,,,,,
End Wavelength (nm):,1700,,,,,,End Wavelength (nm):,1700,,,,,,,
Pattern Width (nm):,7.03,,,,,,Pattern Width (nm):,7.03,,,,,,,
Exposure (ms):,0.635,,,,,,Exposure (ms):,0.635,,,,,,,
Digital Resolution:,228,,,,,,Digital Resolution:,228,,,,,,,
Num Repeats:,6,,,,,,Num Repeats:,30,,,,,,,
PGA Gain:,64,,,,,,PGA Gain:,64,,,,,,,
System Temp (C):,34.75,,,,,,System Temp (C):,27.52,,,,,,,
Humidity (%):,41.69,,,,,,Humidity (%):,73.2,,,,,,,
Lamp Intensity:,2448,,,,,,Lamp Intensity:,2274,,,,,,,
Data Date-Time:,27/10/20 @ 12:54:2,,,,,,Data Date-Time:,9/7/19 @ 16:39:9,,,,,,,
Total Measurement Time in sec:,1.7941815,,,,,,,,,,,,,,
,,,,,,,,,,,,,,,
***General Information***,,,,,,,***Calibration Coefficients***,,,,,,,
Model Name:,NIR-X-XX,,,,,,Shift Vector Coefficients:,-6.85384978732833,0.0551332794684546,-0.000110731550088635,,,,,
Serial Number:,925R021,(95UB122GC1A925R021),,,,,Pixel to Wavelength Coefficients:,1790.66412099084,-0.917492857141292,-0.000239200785115314,,,,,
GUI Version:,2.4.4,,,,,,Versions (Cal/Ref/Cfg):,1,3,1,,,,,
TIVA Version:,2.1.0.67,,,,,,***Lamp Usage * **,,,,,,,
DLPC Version:,2.0.0,,,,,,Total Time(HH:MM:SS):,NA,,,,,,
UUID:,DE:67:0C:88:67:19:47:21,,,,,,***Device/Error Status***,,,,,,,
Main Board Version:,D,,,,,,Device Status:,0x00000001,,,,,,
Detector Board Version:,B,,,,,,Error status:,0x00000000,Error Code:,0x00000000000000000000000000000000,,,,
,,,,,,,,,,,,,,,
***Scan Data***,,,,,,,,,,,,,,
Wavelength (nm),Absorbance (AU)
901.630473432251,0.565534790099237
905.531115772228,0.556393322628941
909.427452498074,0.556965852397042
913.319483609787,0.559277897922458
917.207209107368,0.566001947969554
921.090628990817,0.56970645769636
924.969743260134,0.573872172853233
930.13519799724,0.571802829575866
934.004265833582,0.570113969054528
937.869028055792,0.565462468990537
941.72948466387,0.563981109699094
945.585635657816,0.561689248144188
949.43748103763,0.560570520446666
953.285020803312,0.560734071434065
957.128254954862,0.560360558726821
960.967183492279,0.561274309596061
966.07905725352,0.562070384525188
969.907939357962,0.56120612874044
973.732515848273,0.563854766107886
977.552786724452,0.56388009571833
981.368751986498,0.563549737201749
985.180411634413,0.564787805749894
988.987765668195,0.564338973285665
992.790814087846,0.566126958719417
996.589556893364,0.565834367301673
1001.64784967874,0.565219033634884
1005.43654605128,0.564909525684247
1009.22093680969,0.564591154547584
1013.00102195397,0.565399800885179
1016.77680148412,0.563972983883127
1020.54827540013,0.566346005463796
1024.31544370202,0.564360120353958
1028.07830638977,0.564675951482509
1031.83686346339,0.563782889112889
1036.8415752729,0.565361246257709
1040.59008591354,0.5632718552678
1044.33429094005,0.562949831550216
1048.07419035243,0.562714671217308
1051.80978415068,0.564569938653769
1055.5410723348,0.563984208820943
1059.26805490478,0.564981093978396
1062.99073186063,0.563760095681705
1066.70910320235,0.563722419522842
1071.66023403599,0.562894253530663
1075.36855894474,0.56314977706237
1079.07257823935,0.563072930868898
1082.77229191983,0.563500433583239
1086.46769998618,0.56326395968374
1090.1588024384,0.56278903305302
1093.84559927648,0.563413468354847
1097.52809050043,0.563007796739322
1101.20627611025,0.562171123825129
1106.10382596803,0.561441710136958
1109.77196514487,0.56114154341749
1113.43579870759,0.562459759846088
1117.09532665617,0.561051449508021
1120.75054899062,0.562263388939126
1124.40146571093,0.560753333683196
1128.04807681712,0.560637841619125
1131.69038230917,0.5608847408753
1135.32838218709,0.56073051540717
1140.172351069,0.559691808944003
1143.80030451395,0.558976343458754
1147.42395234476,0.55948227166193
1151.04329456145,0.560450542556222
1154.658331164,0.559855039812762
1158.26906215241,0.560432245610148
1161.8754875267,0.559180795347341
1165.47760728685,0.560037010820972
1169.07542143287,0.559866480990123
1173.86580933892,0.560765441428871
1177.45357705197,0.560141407795495
1181.03703915088,0.561417810878116
1184.61619563566,0.561014214089576
1188.19104650631,0.561132684869002
1191.76159176283,0.560263312498292
1195.32783140522,0.559867639931541
1198.88976543347,0.559512461361976
1202.44739384759,0.558443066949697
1207.18420077777,0.558165040302181
1210.73178275892,0.558778332187606
1214.27505912594,0.557872604722238
1217.81402987882,0.558117383529137
1221.34869501757,0.558106977033642
1224.87905454219,0.556683475371735
1228.40510845267,0.557765437743394
1231.92685674903,0.558254332951246
1235.44429943125,0.558139958134096
1240.12752538557,0.558040598146561
1243.63492163481,0.557842076673123
1247.13801226993,0.557197305399297
1250.63679729091,0.55796553808659
1254.13127669776,0.558204487405936
1257.62145049048,0.558349001676381
1261.10731866907,0.558156071497988
1264.58888123353,0.559159922436617
1268.06613818385,0.560174688275293
1272.6957831623,0.559764329305551
1276.16299367965,0.559633776976802
1279.62589858286,0.560143584057803
1283.08449787195,0.55986069616656
1286.5387915469,0.560002649548587
1289.98877960772,0.559808908771105
1293.43446205441,0.560466688548631
1296.87583888696,0.561242992099803
1300.31291010539,0.560687635598827
1304.88897410797,0.561619318724841
1308.31599889342,0.561245507395919
1311.73871806474,0.560825758680323
1315.15713162192,0.561631434363512
1318.57123956497,0.560103686104326
1321.98104189389,0.561171411708138
1325.38653860868,0.56149111277287
1328.78772970934,0.561419460042474
1332.18461519586,0.562134335416391
1336.70709822258,0.561844849075554
1340.09393727613,0.56220228142776
1343.47647071555,0.562615854600941
1346.85469854083,0.561844579319222
1350.22862075199,0.562227170299733
1353.59823734901,0.5635696313568
1356.9635483319,0.562734664513644
1360.32455370065,0.56354849756012
1363.68125345528,0.563154366447848
1368.15015550613,0.562758858991018
1371.49680882778,0.563748238222758
1374.8391565353,0.564397981095682
1378.17719862868,0.563401665933951
1381.51093510794,0.563598591723714
1384.84036597306,0.563805799781638
1388.16549122405,0.563865575218057
1391.48631086091,0.56533822032002
1394.80282488363,0.565742785022558
1399.21814595862,0.566807174266966
1402.52461354837,0.567761651963608
1405.82677552399,0.5691084012706
1409.12463188548,0.570712563260442
1412.41818263283,0.570219538267607
1415.70742776605,0.570685228811698
1418.99236728514,0.570698461297588
1422.2730011901,0.570127481401086
1425.54932948093,0.56945654969672
1429.91106958005,0.569325336509359
1433.1773514379,0.569272055459821
1436.43932768162,0.568934462047729
1439.6969983112,0.567645306622415
1442.95036332666,0.567172840427806
1446.19942272798,0.56647501505822
1449.44417651517,0.566012660684571
1452.68462468823,0.566742710046489
1456.99852463033,0.565782805921105
1460.22892637041,0.565420553325856
1463.45502249637,0.566502782742541
1466.67681300819,0.56508827285172
1469.89429790587,0.564672364535824
1473.10747718943,0.564936046857221
1476.31635085885,0.564816539245992
1479.52091891415,0.56441878452523
1482.72118135531,0.564396398890135
1486.98150032154,0.564488743525352
1490.17171632972,0.563243084595575
1493.35762672377,0.564431992465742
1496.53923150369,0.563628655325533
1499.71653066948,0.5636544973715
1502.88952422114,0.562533500355408
1506.05821215866,0.563525045923653
1509.22259448206,0.563430823952235
1512.38267119132,0.564083335963074
1516.58940918168,0.563408625525191
1519.73943945797,0.563268197918984
1522.88516412012,0.563854695509302
1526.02658316814,0.563310579159023
1529.16369660203,0.563254160595259
1532.29650442179,0.56330563818092
1535.42500662741,0.562899845171826
1538.54920321891,0.563607134820225
1541.66909419627,0.562728544633162
1545.82225121076,0.563633692795996
1548.93209575515,0.563106430086699
1552.0376346854,0.562795760517185
1555.13886800153,0.5631698529377
1558.23579570352,0.562584340650635
1561.32841779137,0.564138716581345
1564.4167342651,0.563308142289424
1567.50074512469,0.563108995849244
1570.58045037016,0.563145360049071
1574.68002640879,0.561999390625027
1577.74968522127,0.561752910642403
1580.81503841963,0.561686869471967
1583.87608600385,0.561958068866932
1586.93282797394,0.56181611607615
1589.9852643299,0.562170440546155
1593.03339507173,0.563906526579375
1596.07722019942,0.564342415694505
1599.11673971298,0.562559730439322
1603.16273477575,0.565217868922465
1606.19220785634,0.563806804482812
1609.21737532279,0.563395810534422
1612.23823717512,0.563820598110843
1615.25479341331,0.564427059669947
1618.26704403737,0.563792829546993
1621.27498904729,0.563137705620623
1624.27862844309,0.565516143212533
1627.27796222475,0.564305729689908
1631.27037631165,0.564758535714839
1634.25966366034,0.565538251765857
1637.2446453949,0.565592296079317
1640.22532151532,0.56632330560748
1643.20169202161,0.567283560073827
1646.17375691377,0.565574443570666
1649.1415161918,0.568089301303655
1652.10496985569,0.56891110523517
1655.06411790546,0.565429216351088
1659.00295101649,0.562753531981967
1661.95205263328,0.556569952417766
1664.89684863594,0.547997014525491
1667.83733902446,0.533136170129005
1670.77352379886,0.514193639048229
1673.70540295912,0.493855261004526
1676.63297650524,0.473948630539604
1679.55624443724,0.464026943479076
1682.4752067551,0.456996959101189
1686.36045889027,0.45694667826658
1689.26937477516,0.453466876831795
1692.17398504592,0.458555292991826
1695.07428970255,0.455820279299157
1697.97028874504,0.464279570543699
1700.8619821734,0.471769453616084
