##TITLE=Column 1
##JCAMP-DX=4.24
##DATA TYPE=INFRARED SPECTRUM
##Method:,Column 1,Built-In Reference,,,Model Name,NIR-X-XX
##Host Date-Time:,27/10/20 @ 12:53:13,9/7/19 @ 16:39:9,,,GUI Version,2.4.4
##Header Version:,1,1,,,Tiva Version,2.1.0.67
##System Temp (C):,33.54,27.52,,,DLPC Version,2.0.0
##Detector Temp (C),0,0,,,UUID,DE:67:0C:88:67:19:47:21
##Humidity (%):,42.79,73.2,,,Main Board Version,D
##Lamp PD:,2429,2274
##Shift Vector Coefficients:,-6.85384978732833,0.0551332794684546,-0.000110731550088635
##Pixel to Wavelength Coefficients:,1790.66412099084,-0.917492857141292,-0.000239200785115314
##Serial Number:,925R021,925R021
##Scan Config Name:,Column 1,SystemTest
##Scan Config Type:,Column,Column
##Start wavelength (nm):,900,900
##End wavelength (nm):,1700,1700
##Pattern Pixel Width (nm):,7.03,7.03
##Exposure (ms):,0.635,0.635
##Digital Resolution:,228,228
##NPOINTS=228
##Num Repeats:,6,30
##PGA Gain:,64,64
##Total Measurement Time in sec:,1.7861903
##XUNITS=Wavelength(nm)
##YUNITS=Absorbance(AU)
##FIRSTX=901.630473432251
##LASTX=1700.8619821734
##PEAK TABLE=X+(Y..Y)
901.630473432251,0.597908364902857
905.531115772228,0.593141417619118
909.427452498074,0.591945295662063
913.319483609787,0.593941977179757
917.207209107368,0.593892219699918
921.090628990817,0.601106616673954
924.969743260134,0.601078735061849
930.13519799724,0.596195626617805
934.004265833582,0.594226352591712
937.869028055792,0.591413925824032
941.72948466387,0.586166724054341
945.585635657816,0.588524596547724
949.43748103763,0.585874976106767
953.285020803312,0.587122025112122
957.128254954862,0.587158942878184
960.967183492279,0.587536092439999
966.07905725352,0.591217803833992
969.907939357962,0.590491209230537
973.732515848273,0.590070677026794
977.552786724452,0.590609523994226
981.368751986498,0.593027214043507
985.180411634413,0.593520537745412
988.987765668195,0.594161359545584
992.790814087846,0.594031084256628
996.589556893364,0.594636045398408
1001.64784967874,0.595005232711081
1005.43654605128,0.59411563492266
1009.22093680969,0.593276965055162
1013.00102195397,0.593727783216995
1016.77680148412,0.594621976807966
1020.54827540013,0.5941129122524
1024.31544370202,0.593852706608354
1028.07830638977,0.594324539326128
1031.83686346339,0.593394698796603
1036.8415752729,0.595440410489801
1040.59008591354,0.595188451831548
1044.33429094005,0.595775083167944
1048.07419035243,0.594923743357677
1051.80978415068,0.597076941125343
1055.5410723348,0.597033124690758
1059.26805490478,0.596143329328727
1062.99073186063,0.597331306831342
1066.70910320235,0.59789595742054
1071.66023403599,0.598596577177511
1075.36855894474,0.598088731032363
1079.07257823935,0.600796632495893
1082.77229191983,0.599961055135466
1086.46769998618,0.600661587021891
1090.1588024384,0.599881540224568
1093.84559927648,0.60138121592644
1097.52809050043,0.600124733470068
1101.20627611025,0.600481029719376
1106.10382596803,0.601416907816043
1109.77196514487,0.60282083193956
1113.43579870759,0.603290889817559
1117.09532665617,0.603230743669639
1120.75054899062,0.601093732225311
1124.40146571093,0.602852754914132
1128.04807681712,0.603472547242288
1131.69038230917,0.603601472401907
1135.32838218709,0.603314761380805
1140.172351069,0.601901630780272
1143.80030451395,0.601034397481875
1147.42395234476,0.601414002592041
1151.04329456145,0.600296643807385
1154.658331164,0.60028218200967
1158.26906215241,0.599160365561093
1161.8754875267,0.599570171032325
1165.47760728685,0.598971954936695
1169.07542143287,0.597876833020107
1173.86580933892,0.59688201699126
1177.45357705197,0.596453212112504
1181.03703915088,0.596152801441843
1184.61619563566,0.596584144462279
1188.19104650631,0.595683182299096
1191.76159176283,0.594151532141142
1195.32783140522,0.592818857689894
1198.88976543347,0.593043291187413
1202.44739384759,0.592750520925705
1207.18420077777,0.591850416227329
1210.73178275892,0.590725568238945
1214.27505912594,0.591357503719409
1217.81402987882,0.590854284782
1221.34869501757,0.591730665316723
1224.87905454219,0.592238400717531
1228.40510845267,0.591516948156132
1231.92685674903,0.5918658259474
1235.44429943125,0.591609065325122
1240.12752538557,0.591614311107324
1243.63492163481,0.591857659956337
1247.13801226993,0.592264215378053
1250.63679729091,0.59251835428945
1254.13127669776,0.593345279932396
1257.62145049048,0.593346590541197
1261.10731866907,0.593946671864521
1264.58888123353,0.594201641501916
1268.06613818385,0.594935298862703
1272.6957831623,0.595158009476764
1276.16299367965,0.595320172362449
1279.62589858286,0.594514976746182
1283.08449787195,0.5953714772994
1286.5387915469,0.595532746065638
1289.98877960772,0.595985359865623
1293.43446205441,0.596190624231155
1296.87583888696,0.595413605737895
1300.31291010539,0.595546561720548
1304.88897410797,0.596102202327469
1308.31599889342,0.595415717548794
1311.73871806474,0.596337494377938
1315.15713162192,0.595735218903097
1318.57123956497,0.595943274885104
1321.98104189389,0.595173829688414
1325.38653860868,0.596587025318907
1328.78772970934,0.595674032139947
1332.18461519586,0.596341552572376
1336.70709822258,0.596535792879236
1340.09393727613,0.596192457847284
1343.47647071555,0.597012344301943
1346.85469854083,0.5964897621709
1350.22862075199,0.597009982193923
1353.59823734901,0.597992037169274
1356.9635483319,0.595827508206434
1360.32455370065,0.59677729608267
1363.68125345528,0.597546214294317
1368.15015550613,0.59829946088295
1371.49680882778,0.598102075132543
1374.8391565353,0.598158599861141
1378.17719862868,0.597725346311781
1381.51093510794,0.597754548255633
1384.84036597306,0.598026832987932
1388.16549122405,0.598697715171932
1391.48631086091,0.599056962792559
1394.80282488363,0.599696667252555
1399.21814595862,0.600715911836943
1402.52461354837,0.601860558773883
1405.82677552399,0.601822020194656
1409.12463188548,0.603229069069834
1412.41818263283,0.604366451704068
1415.70742776605,0.604055531631281
1418.99236728514,0.604210720871777
1422.2730011901,0.604507689362564
1425.54932948093,0.603771010045353
1429.91106958005,0.603094966555516
1433.1773514379,0.60264151699868
1436.43932768162,0.603123507727458
1439.6969983112,0.603523995873601
1442.95036332666,0.602394122083938
1446.19942272798,0.602718058891745
1449.44417651517,0.601490177823114
1452.68462468823,0.602114427918017
1456.99852463033,0.60124454905045
1460.22892637041,0.601265636515868
1463.45502249637,0.601044908205659
1466.67681300819,0.601077333803958
1469.89429790587,0.600281460614113
1473.10747718943,0.601617907497689
1476.31635085885,0.601740762596226
1479.52091891415,0.601299060234007
1482.72118135531,0.60134946729474
1486.98150032154,0.601827417626315
1490.17171632972,0.600286904659124
1493.35762672377,0.600563750990574
1496.53923150369,0.599854509444896
1499.71653066948,0.600054456862859
1502.88952422114,0.599509449304204
1506.05821215866,0.59972108140589
1509.22259448206,0.598822370091096
1512.38267119132,0.598565171821884
1516.58940918168,0.59878938637557
1519.73943945797,0.598612324089345
1522.88516412012,0.59898652952916
1526.02658316814,0.598356487114534
1529.16369660203,0.598187570669098
1532.29650442179,0.59838085915625
1535.42500662741,0.597976629355219
1538.54920321891,0.596899568545495
1541.66909419627,0.597940114459841
1545.82225121076,0.597367461243632
1548.93209575515,0.596263411811273
1552.0376346854,0.596183235462268
1555.13886800153,0.596285548873703
1558.23579570352,0.59618483921496
1561.32841779137,0.596794292062154
1564.4167342651,0.596002792064011
1567.50074512469,0.59486706047074
1570.58045037016,0.593993791179562
1574.68002640879,0.593939358892678
1577.74968522127,0.594326289723068
1580.81503841963,0.594313741735063
1583.87608600385,0.593977729497028
1586.93282797394,0.59336132184344
1589.9852643299,0.592012143675164
1593.03339507173,0.591346299525523
1596.07722019942,0.592583958832112
1599.11673971298,0.591452935273296
1603.16273477575,0.590774145667383
1606.19220785634,0.59092394796823
1609.21737532279,0.589582339974543
1612.23823717512,0.59012454191113
1615.25479341331,0.590363062560083
1618.26704403737,0.5907131072007
1621.27498904729,0.58965521094269
1624.27862844309,0.588591494954328
1627.27796222475,0.58858247780345
1631.27037631165,0.588540928180504
1634.25966366034,0.588161182233122
1637.2446453949,0.590706633646947
1640.22532151532,0.589534715071006
1643.20169202161,0.591440457682366
1646.17375691377,0.592586570072281
1649.1415161918,0.592505798200726
1652.10496985569,0.592641063530386
1655.06411790546,0.595558429131412
1659.00295101649,0.593212814148611
1661.95205263328,0.585432929609896
1664.89684863594,0.578393001417773
1667.83733902446,0.561546799861962
1670.77352379886,0.545300165103186
1673.70540295912,0.527905389613115
1676.63297650524,0.51576369634782
1679.55624443724,0.501739680484365
1682.4752067551,0.496817310746264
1686.36045889027,0.496647425919958
1689.26937477516,0.484949881969989
1692.17398504592,0.508847600369928
1695.07428970255,0.496354440277094
1697.97028874504,0.50082633064297
1700.8619821734,0.519101903226136
##END=
