##TITLE=Column 1
##JCAMP-DX=4.24
##DATA TYPE=INFRARED SPECTRUM
##Method:,Column 1,Built-In Reference,,,Model Name,NIR-X-XX
##Host Date-Time:,27/10/20 @ 12:53:9,9/7/19 @ 16:39:9,,,GUI Version,2.4.4
##Header Version:,1,1,,,Tiva Version,2.1.0.67
##System Temp (C):,33.44,27.52,,,DLPC Version,2.0.0
##Detector Temp (C),0,0,,,UUID,DE:67:0C:88:67:19:47:21
##Humidity (%):,42.88,73.2,,,Main Board Version,D
##Lamp PD:,2428,2274
##Shift Vector Coefficients:,-6.85384978732833,0.0551332794684546,-0.000110731550088635
##Pixel to Wavelength Coefficients:,1790.66412099084,-0.917492857141292,-0.000239200785115314
##Serial Number:,925R021,925R021
##Scan Config Name:,Column 1,SystemTest
##Scan Config Type:,Column,Column
##Start wavelength (nm):,900,900
##End wavelength (nm):,1700,1700
##Pattern Pixel Width (nm):,7.03,7.03
##Exposure (ms):,0.635,0.635
##Digital Resolution:,228,228
##NPOINTS=228
##Num Repeats:,6,30
##PGA Gain:,64,64
##Total Measurement Time in sec:,1.7971703
##XUNITS=Wavelength(nm)
##YUNITS=Reflectance(AU)
##FIRSTX=901.630473432251
##LASTX=1700.8619821734
##PEAK TABLE=X+(Y..Y)
901.630473432251,0.279885637073954
905.531115772228,0.286588553402434
909.427452498074,0.285679619774408
913.319483609787,0.284995569937209
917.207209107368,0.279305142282386
921.090628990817,0.279974027919986
924.969743260134,0.278439288775821
930.13519799724,0.277510188958874
934.004265833582,0.279890541981207
937.869028055792,0.282312517000272
941.72948466387,0.283207557822233
945.585635657816,0.2839364205956
949.43748103763,0.285688777787698
953.285020803312,0.28482918967476
957.128254954862,0.284899178206063
960.967183492279,0.284285481495602
966.07905725352,0.284384725351657
969.907939357962,0.282656698302168
973.732515848273,0.283752271727675
977.552786724452,0.282862586381348
981.368751986498,0.283451347197225
985.180411634413,0.283066974405897
988.987765668195,0.283417645545743
992.790814087846,0.282126239251548
996.589556893364,0.282154514178176
1001.64784967874,0.281488627867152
1005.43654605128,0.280803259381254
1009.22093680969,0.281602926536503
1013.00102195397,0.281732299525869
1016.77680148412,0.281934971193961
1020.54827540013,0.28140441087856
1024.31544370202,0.281420441913159
1028.07830638977,0.281257551134506
1031.83686346339,0.281856644211216
1036.8415752729,0.279722011251926
1040.59008591354,0.280084425704424
1044.33429094005,0.27994765717853
1048.07419035243,0.279176195864128
1051.80978415068,0.279233114248405
1055.5410723348,0.278043750816879
1059.26805490478,0.277279630465266
1062.99073186063,0.276019286590476
1066.70910320235,0.276514589800875
1071.66023403599,0.274818549073178
1075.36855894474,0.275253290534365
1079.07257823935,0.274268432317005
1082.77229191983,0.274236614595611
1086.46769998618,0.274943314729551
1090.1588024384,0.272489597086708
1093.84559927648,0.272956593964377
1097.52809050043,0.272607117911427
1101.20627611025,0.27229484259097
1106.10382596803,0.272235283782628
1109.77196514487,0.271971224340176
1113.43579870759,0.271473221789636
1117.09532665617,0.271629941854571
1120.75054899062,0.271640829762682
1124.40146571093,0.270361775107494
1128.04807681712,0.270734494123034
1131.69038230917,0.270611069946165
1135.32838218709,0.270552149900867
1140.172351069,0.271336322485144
1143.80030451395,0.272335897681446
1147.42395234476,0.272170433791159
1151.04329456145,0.272795385671472
1154.658331164,0.272157358827067
1158.26906215241,0.273139807432759
1161.8754875267,0.272571726189265
1165.47760728685,0.272178012369805
1169.07542143287,0.271657248593271
1173.86580933892,0.273007015556919
1177.45357705197,0.271370122470569
1181.03703915088,0.271699346405229
1184.61619563566,0.271860943958181
1188.19104650631,0.272725395875054
1191.76159176283,0.273033899435874
1195.32783140522,0.272880509084121
1198.88976543347,0.273577835525353
1202.44739384759,0.273119602128399
1207.18420077777,0.273106314096612
1210.73178275892,0.273533260387443
1214.27505912594,0.273049542548999
1217.81402987882,0.273283967080185
1221.34869501757,0.272748275959504
1224.87905454219,0.273061398615168
1228.40510845267,0.272727567364348
1231.92685674903,0.272626342729436
1235.44429943125,0.272299436110764
1240.12752538557,0.272793105493319
1243.63492163481,0.272577019292316
1247.13801226993,0.272595174929149
1250.63679729091,0.272462558594999
1254.13127669776,0.272220546540387
1257.62145049048,0.27187100229078
1261.10731866907,0.271337756880667
1264.58888123353,0.270624897254051
1268.06613818385,0.270758133012479
1272.6957831623,0.270583628201004
1276.16299367965,0.270553519426882
1279.62589858286,0.271164988699404
1283.08449787195,0.270378583487593
1286.5387915469,0.269902264254083
1289.98877960772,0.269883363764439
1293.43446205441,0.26976042656923
1296.87583888696,0.269573940129877
1300.31291010539,0.269504486990879
1304.88897410797,0.269527478715051
1308.31599889342,0.26936977651936
1311.73871806474,0.269146960665913
1315.15713162192,0.269390025098007
1318.57123956497,0.269015333432579
1321.98104189389,0.268720080771414
1325.38653860868,0.269293521438251
1328.78772970934,0.268689165186501
1332.18461519586,0.26867863264214
1336.70709822258,0.268827356086962
1340.09393727613,0.2682988412579
1343.47647071555,0.268158599638697
1346.85469854083,0.267608694520641
1350.22862075199,0.267759141661626
1353.59823734901,0.266843707459998
1356.9635483319,0.266833299663433
1360.32455370065,0.266923845846481
1363.68125345528,0.266368634938243
1368.15015550613,0.265959857797851
1371.49680882778,0.266477820441706
1374.8391565353,0.266150003862097
1378.17719862868,0.265980704404168
1381.51093510794,0.265955047005371
1384.84036597306,0.266202874541058
1388.16549122405,0.266105694880497
1391.48631086091,0.265226254843844
1394.80282488363,0.264655982759016
1399.21814595862,0.264254289580358
1402.52461354837,0.263486987494475
1405.82677552399,0.262627606543058
1409.12463188548,0.262517308706207
1412.41818263283,0.261716852577106
1415.70742776605,0.261662556216451
1418.99236728514,0.262082521009135
1422.2730011901,0.261817627325404
1425.54932948093,0.261950378458307
1429.91106958005,0.262388942010073
1433.1773514379,0.262222842124074
1436.43932768162,0.262818853624702
1439.6969983112,0.262945577766504
1442.95036332666,0.26333839745873
1446.19942272798,0.263533532208636
1449.44417651517,0.263508222396241
1452.68462468823,0.263408875610289
1456.99852463033,0.263919088430586
1460.22892637041,0.264167041059285
1463.45502249637,0.264011281591762
1466.67681300819,0.263958627784172
1469.89429790587,0.264086490898847
1473.10747718943,0.264303635850765
1476.31635085885,0.264060973517984
1479.52091891415,0.264458573522667
1482.72118135531,0.264038622310259
1486.98150032154,0.264141609572152
1490.17171632972,0.264622373651334
1493.35762672377,0.264222029381724
1496.53923150369,0.264943204921467
1499.71653066948,0.265056924225457
1502.88952422114,0.264876818051547
1506.05821215866,0.265827497590242
1509.22259448206,0.265502717823198
1512.38267119132,0.26565679874111
1516.58940918168,0.266051086351608
1519.73943945797,0.266133688361435
1522.88516412012,0.266451554337869
1526.02658316814,0.266863274351028
1529.16369660203,0.266360155577089
1532.29650442179,0.267009051327109
1535.42500662741,0.267189190117267
1538.54920321891,0.268100863922633
1541.66909419627,0.267704252815009
1545.82225121076,0.267465240794364
1548.93209575515,0.267537998092871
1552.0376346854,0.267954723230266
1555.13886800153,0.268589976899479
1558.23579570352,0.269098160468046
1561.32841779137,0.26920035300455
1564.4167342651,0.269698416209692
1567.50074512469,0.270563786284105
1570.58045037016,0.270996224992077
1574.68002640879,0.271378717513161
1577.74968522127,0.271481173685235
1580.81503841963,0.271573175965207
1583.87608600385,0.272515620950477
1586.93282797394,0.271984353643223
1589.9852643299,0.272372330790202
1593.03339507173,0.272766289142428
1596.07722019942,0.273322232302106
1599.11673971298,0.273382741652958
1603.16273477575,0.273328908031922
1606.19220785634,0.274321057615973
1609.21737532279,0.27430422233541
1612.23823717512,0.273954650248466
1615.25479341331,0.274378941595832
1618.26704403737,0.274587779673259
1621.27498904729,0.273944494077639
1624.27862844309,0.273807059157562
1627.27796222475,0.274962563368902
1631.27037631165,0.274451280241046
1634.25966366034,0.272286312731423
1637.2446453949,0.270747749942435
1640.22532151532,0.266911620649002
1643.20169202161,0.263173375765029
1646.17375691377,0.259331527310001
1649.1415161918,0.255655542583355
1652.10496985569,0.25075748346505
1655.06411790546,0.247966449482109
1659.00295101649,0.247355580726671
1661.95205263328,0.250554631170272
1664.89684863594,0.257744604352274
1667.83733902446,0.268518417759399
1670.77352379886,0.284369275337622
1673.70540295912,0.298931491381534
1676.63297650524,0.312936935181351
1679.55624443724,0.323283034023754
1682.4752067551,0.331771629038647
1686.36045889027,0.33857096303433
1689.26937477516,0.328295032246238
1692.17398504592,0.343251569629139
1695.07428970255,0.335027231501948
1697.97028874504,0.331200423056584
1700.8619821734,0.327174444172978
##END=
