##TITLE=Column 1
##JCAMP-DX=4.24
##DATA TYPE=INFRARED SPECTRUM
##Method:,Column 1,Built-In Reference,,,Model Name,NIR-X-XX
##Host Date-Time:,27/10/20 @ 12:53:16,9/7/19 @ 16:39:9,,,GUI Version,2.4.4
##Header Version:,1,1,,,Tiva Version,2.1.0.67
##System Temp (C):,33.63,27.52,,,DLPC Version,2.0.0
##Detector Temp (C),0,0,,,UUID,DE:67:0C:88:67:19:47:21
##Humidity (%):,42.74,73.2,,,Main Board Version,D
##Lamp PD:,2429,2274
##Shift Vector Coefficients:,-6.85384978732833,0.0551332794684546,-0.000110731550088635
##Pixel to Wavelength Coefficients:,1790.66412099084,-0.917492857141292,-0.000239200785115314
##Serial Number:,925R021,925R021
##Scan Config Name:,Column 1,SystemTest
##Scan Config Type:,Column,Column
##Start wavelength (nm):,900,900
##End wavelength (nm):,1700,1700
##Pattern Pixel Width (nm):,7.03,7.03
##Exposure (ms):,0.635,0.635
##Digital Resolution:,228,228
##NPOINTS=228
##Num Repeats:,6,30
##PGA Gain:,64,64
##Total Measurement Time in sec:,1.8351165
##XUNITS=Wavelength(nm)
##YUNITS=Absorbance(AU)
##FIRSTX=901.630473432251
##LASTX=1700.8619821734
##PEAK TABLE=X+(Y..Y)
901.630473432251,0.607223120663938
905.531115772228,0.60560514375407
909.427452498074,0.600203347316468
913.319483609787,0.600733655447138
917.207209107368,0.606235902672893
921.090628990817,0.613510855823205
924.969743260134,0.613584417496188
930.13519799724,0.607603270830706
934.004265833582,0.607680301356105
937.869028055792,0.603828588628881
941.72948466387,0.599356585427054
945.585635657816,0.597286702822538
949.43748103763,0.596079637599903
953.285020803312,0.594371753527387
957.128254954862,0.591477430566645
960.967183492279,0.591370225661973
966.07905725352,0.592210739679736
969.907939357962,0.590915527447101
973.732515848273,0.59348241001821
977.552786724452,0.592608381965824
981.368751986498,0.592441998717528
985.180411634413,0.592488564226459
988.987765668195,0.592088514803208
992.790814087846,0.593092589800164
996.589556893364,0.592307248812032
1001.64784967874,0.592928396165385
1005.43654605128,0.592615662813932
1009.22093680969,0.593780010479176
1013.00102195397,0.592017340808708
1016.77680148412,0.593158394410674
1020.54827540013,0.593444345424061
1024.31544370202,0.593316801675528
1028.07830638977,0.594571213697344
1031.83686346339,0.593386617470938
1036.8415752729,0.593923681109219
1040.59008591354,0.594143384942265
1044.33429094005,0.593405333589301
1048.07419035243,0.59391290524677
1051.80978415068,0.59448563565856
1055.5410723348,0.594088041975923
1059.26805490478,0.595707017386984
1062.99073186063,0.594962781465823
1066.70910320235,0.596989231325221
1071.66023403599,0.597416883111072
1075.36855894474,0.598042827156573
1079.07257823935,0.597478750402211
1082.77229191983,0.598906044541915
1086.46769998618,0.599882843309987
1090.1588024384,0.600937395436725
1093.84559927648,0.599023516791171
1097.52809050043,0.601460862295094
1101.20627611025,0.600626633115741
1106.10382596803,0.601188396122295
1109.77196514487,0.603123945897229
1113.43579870759,0.604154400988068
1117.09532665617,0.604598490025898
1120.75054899062,0.604116066670643
1124.40146571093,0.606980684374921
1128.04807681712,0.608854389997428
1131.69038230917,0.606990799040315
1135.32838218709,0.608095210549413
1140.172351069,0.606105594211074
1143.80030451395,0.606908599964458
1147.42395234476,0.607217315913976
1151.04329456145,0.606878426437266
1154.658331164,0.608090885416009
1158.26906215241,0.608610297152169
1161.8754875267,0.607940020859509
1165.47760728685,0.608965388645413
1169.07542143287,0.609499596965269
1173.86580933892,0.610419626758437
1177.45357705197,0.611110698341912
1181.03703915088,0.611819828617119
1184.61619563566,0.611597829958503
1188.19104650631,0.610467156145706
1191.76159176283,0.609908567710518
1195.32783140522,0.609228667074892
1198.88976543347,0.608825040347767
1202.44739384759,0.609097339769243
1207.18420077777,0.608043084941023
1210.73178275892,0.608673558297473
1214.27505912594,0.608809025475033
1217.81402987882,0.608249090325438
1221.34869501757,0.608153832836813
1224.87905454219,0.607815778662691
1228.40510845267,0.607447598442319
1231.92685674903,0.608310301890983
1235.44429943125,0.607576627590755
1240.12752538557,0.606738875126118
1243.63492163481,0.607722281551814
1247.13801226993,0.606909566548364
1250.63679729091,0.606590339395798
1254.13127669776,0.606613520702087
1257.62145049048,0.608353696291524
1261.10731866907,0.606205675223201
1264.58888123353,0.607351543820835
1268.06613818385,0.608977052616033
1272.6957831623,0.607387820005621
1276.16299367965,0.607598799191422
1279.62589858286,0.608070449314626
1283.08449787195,0.608104222213865
1286.5387915469,0.607727245345824
1289.98877960772,0.608411608784167
1293.43446205441,0.608110327699046
1296.87583888696,0.607349649482541
1300.31291010539,0.609679267039519
1304.88897410797,0.610129357753569
1308.31599889342,0.608921260489914
1311.73871806474,0.609613663503773
1315.15713162192,0.609695870333925
1318.57123956497,0.60911921916461
1321.98104189389,0.61033130804687
1325.38653860868,0.609608749297361
1328.78772970934,0.610654485671596
1332.18461519586,0.61081858716269
1336.70709822258,0.610674497330363
1340.09393727613,0.611374175302594
1343.47647071555,0.611797233142155
1346.85469854083,0.612205265130349
1350.22862075199,0.612337921731397
1353.59823734901,0.613625516107716
1356.9635483319,0.613577473189171
1360.32455370065,0.614038333442726
1363.68125345528,0.614033530426521
1368.15015550613,0.614992973013281
1371.49680882778,0.614775777717207
1374.8391565353,0.615217136669845
1378.17719862868,0.614685748126804
1381.51093510794,0.614866924896605
1384.84036597306,0.616185879493823
1388.16549122405,0.614969230573695
1391.48631086091,0.616202507934448
1394.80282488363,0.617116592210645
1399.21814595862,0.618598080488035
1402.52461354837,0.619616705703157
1405.82677552399,0.620030735093214
1409.12463188548,0.622132915318905
1412.41818263283,0.621831098795058
1415.70742776605,0.620995406465202
1418.99236728514,0.622075094559626
1422.2730011901,0.62237601722167
1425.54932948093,0.622021416979767
1429.91106958005,0.619767616929005
1433.1773514379,0.620932449578598
1436.43932768162,0.620812287760657
1439.6969983112,0.618202169696063
1442.95036332666,0.618369937767034
1446.19942272798,0.619007558210165
1449.44417651517,0.618301151607919
1452.68462468823,0.617345622669351
1456.99852463033,0.617225944635275
1460.22892637041,0.617825518165436
1463.45502249637,0.617059968958743
1466.67681300819,0.617157888115365
1469.89429790587,0.616687522718878
1473.10747718943,0.617101968002824
1476.31635085885,0.616514287343345
1479.52091891415,0.61716225971804
1482.72118135531,0.615947703117203
1486.98150032154,0.615851953616403
1490.17171632972,0.615077284574503
1493.35762672377,0.615538947737421
1496.53923150369,0.614756287697434
1499.71653066948,0.614102736302369
1502.88952422114,0.615601933734895
1506.05821215866,0.614802978995676
1509.22259448206,0.615089480727231
1512.38267119132,0.613947770466245
1516.58940918168,0.61333065467361
1519.73943945797,0.612710060765357
1522.88516412012,0.613171456564438
1526.02658316814,0.614294695838892
1529.16369660203,0.613693680624822
1532.29650442179,0.612824895148074
1535.42500662741,0.612863649619508
1538.54920321891,0.614180453215297
1541.66909419627,0.612484751465647
1545.82225121076,0.612291959931381
1548.93209575515,0.612856884242693
1552.0376346854,0.611192283629713
1555.13886800153,0.611691986023573
1558.23579570352,0.611858043372068
1561.32841779137,0.612468976198909
1564.4167342651,0.610283123507054
1567.50074512469,0.609144222388463
1570.58045037016,0.60937071731459
1574.68002640879,0.610282634087521
1577.74968522127,0.60973954710058
1580.81503841963,0.609952584569529
1583.87608600385,0.610721798899225
1586.93282797394,0.607996896020347
1589.9852643299,0.608376625849273
1593.03339507173,0.608296762954541
1596.07722019942,0.608354667437391
1599.11673971298,0.608264704926035
1603.16273477575,0.609570046777758
1606.19220785634,0.608903832699569
1609.21737532279,0.608972076737931
1612.23823717512,0.609565325127326
1615.25479341331,0.609535669718735
1618.26704403737,0.609705323081659
1621.27498904729,0.610765210500146
1624.27862844309,0.608345167658784
1627.27796222475,0.611219790284207
1631.27037631165,0.610390431410154
1634.25966366034,0.613031618497865
1637.2446453949,0.618222481983848
1640.22532151532,0.620656405182937
1643.20169202161,0.624579546854178
1646.17375691377,0.630379656323849
1649.1415161918,0.636420603800351
1652.10496985569,0.642800174623715
1655.06411790546,0.646724942348631
1659.00295101649,0.648132933245464
1661.95205263328,0.641713845550496
1664.89684863594,0.628611131295686
1667.83733902446,0.61532796690366
1670.77352379886,0.589490574626576
1673.70540295912,0.569008274353491
1676.63297650524,0.553138278167394
1679.55624443724,0.534768047668419
1682.4752067551,0.523772515923599
1686.36045889027,0.517552012910672
1689.26937477516,0.519421008576553
1692.17398504592,0.525137119031755
1695.07428970255,0.520047655875162
1697.97028874504,0.527651260141583
1700.8619821734,0.523108703873363
##END=
