##TITLE=Column 1
##JCAMP-DX=4.24
##DATA TYPE=INFRARED SPECTRUM
##Method:,Column 1,Built-In Reference,,,Model Name,NIR-X-XX
##Host Date-Time:,27/10/20 @ 12:53:27,9/7/19 @ 16:39:9,,,GUI Version,2.4.4
##Header Version:,1,1,,,Tiva Version,2.1.0.67
##System Temp (C):,33.91,27.52,,,DLPC Version,2.0.0
##Detector Temp (C),0,0,,,UUID,DE:67:0C:88:67:19:47:21
##Humidity (%):,42.46,73.2,,,Main Board Version,D
##Lamp PD:,2437,2274
##Shift Vector Coefficients:,-6.85384978732833,0.0551332794684546,-0.000110731550088635
##Pixel to Wavelength Coefficients:,1790.66412099084,-0.917492857141292,-0.000239200785115314
##Serial Number:,925R021,925R021
##Scan Config Name:,Column 1,SystemTest
##Scan Config Type:,Column,Column
##Start wavelength (nm):,900,900
##End wavelength (nm):,1700,1700
##Pattern Pixel Width (nm):,7.03,7.03
##Exposure (ms):,0.635,0.635
##Digital Resolution:,228,228
##NPOINTS=228
##Num Repeats:,6,30
##PGA Gain:,64,64
##Total Measurement Time in sec:,1.8091557
##XUNITS=Wavelength(nm)
##YUNITS=Reflectance(AU)
##FIRSTX=901.630473432251
##LASTX=1700.8619821734
##PEAK TABLE=X+(Y..Y)
901.630473432251,0.262290587578698
905.531115772228,0.261469130238846
909.427452498074,0.258861331458982
913.319483609787,0.257922107939443
917.207209107368,0.252762527415727
921.090628990817,0.249675348999825
924.969743260134,0.246561402538506
930.13519799724,0.246729557955938
934.004265833582,0.246349600970275
937.869028055792,0.248691979071665
941.72948466387,0.250153377119521
945.585635657816,0.249703561206103
949.43748103763,0.250784614011112
953.285020803312,0.24980844936458
957.128254954862,0.248671470282008
960.967183492279,0.249235196635173
966.07905725352,0.24795712461981
969.907939357962,0.247902284195261
973.732515848273,0.247260787421613
977.552786724452,0.24579126391251
981.368751986498,0.246357772493793
985.180411634413,0.244966253206331
988.987765668195,0.244808872704531
992.790814087846,0.245105654337225
996.589556893364,0.244964370779138
1001.64784967874,0.243626540604423
1005.43654605128,0.244309966774228
1009.22093680969,0.24347078464902
1013.00102195397,0.244081657823644
1016.77680148412,0.244359408553833
1020.54827540013,0.244715618139756
1024.31544370202,0.243993585589336
1028.07830638977,0.24410478487262
1031.83686346339,0.244666336043965
1036.8415752729,0.244571053076423
1040.59008591354,0.245006645058276
1044.33429094005,0.245094061010601
1048.07419035243,0.245858109246732
1051.80978415068,0.246520025392289
1055.5410723348,0.246673185560972
1059.26805490478,0.245910906029685
1062.99073186063,0.246414127306071
1066.70910320235,0.246202130064738
1071.66023403599,0.246505884697841
1075.36855894474,0.246400352994514
1079.07257823935,0.246440597718697
1082.77229191983,0.246614258841415
1086.46769998618,0.246908348237908
1090.1588024384,0.246902958574241
1093.84559927648,0.246609605978357
1097.52809050043,0.247047922315849
1101.20627611025,0.247602359675253
1106.10382596803,0.247274988614481
1109.77196514487,0.247099523460411
1113.43579870759,0.246612121404851
1117.09532665617,0.246398295061581
1120.75054899062,0.245605639094381
1124.40146571093,0.244749535190206
1128.04807681712,0.244265582930271
1131.69038230917,0.244598466915405
1135.32838218709,0.244463099622992
1140.172351069,0.245510908973891
1143.80030451395,0.245977378406274
1147.42395234476,0.246463900003167
1151.04329456145,0.246094731026169
1154.658331164,0.246220526326704
1158.26906215241,0.246319262270666
1161.8754875267,0.24582216055436
1165.47760728685,0.245538610310857
1169.07542143287,0.245353107964221
1173.86580933892,0.244777657181508
1177.45357705197,0.244134130357844
1181.03703915088,0.243521722414456
1184.61619563566,0.244491551179188
1188.19104650631,0.244191611596694
1191.76159176283,0.244221602828783
1195.32783140522,0.244186876479018
1198.88976543347,0.244017618026875
1202.44739384759,0.243678529728959
1207.18420077777,0.24381676821684
1210.73178275892,0.243399001920448
1214.27505912594,0.244126834111532
1217.81402987882,0.243445333441091
1221.34869501757,0.243228913019269
1224.87905454219,0.243013487349457
1228.40510845267,0.242545682005276
1231.92685674903,0.24228486290342
1235.44429943125,0.242168337009724
1240.12752538557,0.241930449385244
1243.63492163481,0.242242410936539
1247.13801226993,0.241893386894085
1250.63679729091,0.242206370140689
1254.13127669776,0.24171140737166
1257.62145049048,0.241730877934133
1261.10731866907,0.241241522754903
1264.58888123353,0.241091746003363
1268.06613818385,0.241716231322587
1272.6957831623,0.241231591166557
1276.16299367965,0.240790362406298
1279.62589858286,0.240732826518732
1283.08449787195,0.240376629228122
1286.5387915469,0.240595004557591
1289.98877960772,0.240620046034288
1293.43446205441,0.240275793577032
1296.87583888696,0.240045404149728
1300.31291010539,0.240252353831281
1304.88897410797,0.240002247053029
1308.31599889342,0.240348160410103
1311.73871806474,0.240028828548054
1315.15713162192,0.239565400012445
1318.57123956497,0.239896698360507
1321.98104189389,0.239709336673816
1325.38653860868,0.239351924217195
1328.78772970934,0.239398030033909
1332.18461519586,0.23912346601382
1336.70709822258,0.238757905355596
1340.09393727613,0.238785813340101
1343.47647071555,0.238772866961523
1346.85469854083,0.238127273957558
1350.22862075199,0.237418662040369
1353.59823734901,0.237246039882749
1356.9635483319,0.23710739905962
1360.32455370065,0.23683627129129
1363.68125345528,0.236285918467479
1368.15015550613,0.235856558745553
1371.49680882778,0.23586749888254
1374.8391565353,0.236258725291046
1378.17719862868,0.236123423955871
1381.51093510794,0.235976235058686
1384.84036597306,0.23590154025253
1388.16549122405,0.235068645603391
1391.48631086091,0.235207947178256
1394.80282488363,0.234489992434143
1399.21814595862,0.233515719454888
1402.52461354837,0.23281104206929
1405.82677552399,0.23212785311527
1409.12463188548,0.230851791125196
1412.41818263283,0.231284862738502
1415.70742776605,0.230841433338169
1418.99236728514,0.230189572152535
1422.2730011901,0.230460796700504
1425.54932948093,0.23025458601992
1429.91106958005,0.231137216378892
1433.1773514379,0.23020684865629
1436.43932768162,0.231124708811135
1439.6969983112,0.231218536442123
1442.95036332666,0.231555074180956
1446.19942272798,0.232201217977901
1449.44417651517,0.231398811689805
1452.68462468823,0.231720469285142
1456.99852463033,0.231760653157067
1460.22892637041,0.231556102550894
1463.45502249637,0.231675125412226
1466.67681300819,0.231697377981292
1469.89429790587,0.231693809678025
1473.10747718943,0.231713110738305
1476.31635085885,0.231924588525703
1479.52091891415,0.231806313719495
1482.72118135531,0.23216768469493
1486.98150032154,0.232114052458668
1490.17171632972,0.232016266417541
1493.35762672377,0.232329112174294
1496.53923150369,0.232188052238794
1499.71653066948,0.232470138111236
1502.88952422114,0.232090420608682
1506.05821215866,0.232419018711714
1509.22259448206,0.232488318128358
1512.38267119132,0.23303399450678
1516.58940918168,0.232338572418303
1519.73943945797,0.23230188728621
1522.88516412012,0.232268499797816
1526.02658316814,0.232646872604885
1529.16369660203,0.232517764857881
1532.29650442179,0.232219393564483
1535.42500662741,0.232065655958656
1538.54920321891,0.231897399200342
1541.66909419627,0.232044548281132
1545.82225121076,0.232287657961923
1548.93209575515,0.23187505417979
1552.0376346854,0.231870332138336
1555.13886800153,0.23181855320919
1558.23579570352,0.23186689237919
1561.32841779137,0.231263825056446
1564.4167342651,0.230918644949219
1567.50074512469,0.23077105079479
1570.58045037016,0.229938500667948
1574.68002640879,0.230563355112755
1577.74968522127,0.229692134751491
1580.81503841963,0.229087624981051
1583.87608600385,0.22887714277625
1586.93282797394,0.228559046105635
1589.9852643299,0.228382436730052
1593.03339507173,0.227542256886608
1596.07722019942,0.227462972218209
1599.11673971298,0.227236275623802
1603.16273477575,0.226513877312677
1606.19220785634,0.225744035083689
1609.21737532279,0.22480638378456
1612.23823717512,0.224133043054983
1615.25479341331,0.223057307375925
1618.26704403737,0.222614433824129
1621.27498904729,0.22208997377446
1624.27862844309,0.220650431511265
1627.27796222475,0.219513824975776
1631.27037631165,0.219336619558503
1634.25966366034,0.217344642660286
1637.2446453949,0.215404843505451
1640.22532151532,0.212649386984901
1643.20169202161,0.207875143082937
1646.17375691377,0.204272221408698
1649.1415161918,0.200639091474232
1652.10496985569,0.197570551086414
1655.06411790546,0.194546405827195
1659.00295101649,0.190698788882112
1661.95205263328,0.192378443335182
1664.89684863594,0.198543944856629
1667.83733902446,0.206746830621905
1670.77352379886,0.219169745178351
1673.70540295912,0.231851733102857
1676.63297650524,0.243628155473818
1679.55624443724,0.252787499760935
1682.4752067551,0.253799581282182
1686.36045889027,0.258958047011151
1689.26937477516,0.257319979335744
1692.17398504592,0.26389268026362
1695.07428970255,0.263313811726637
1697.97028874504,0.262850343733474
1700.8619821734,0.256871487906181
##END=
