***Scan Config Information***,,,,,,,***Reference Scan Information***,,,,,,,
Scan Config Name:,Column 1,,,,,,Scan Config Name:,Built-in Factory Reference,,,,,,,,
Scan Config Type:,Slew,Num Section:,1,,,,Scan Config Type:,Slew,Num Section:,1,,,,,
Section Config Type:,Column,,,,,,Section Config Type:,Column,,,,,,,
Start Wavelength (nm):,900,,,,,,Start Wavelength (nm):,900,,,,,,,
End Wavelength (nm):,1700,,,,,,End Wavelength (nm):,1700,,,,,,,
Pattern Width (nm):,7.03,,,,,,Pattern Width (nm):,7.03,,,,,,,
Exposure (ms):,0.635,,,,,,Exposure (ms):,0.635,,,,,,,
Digital Resolution:,228,,,,,,Digital Resolution:,228,,,,,,,
Num Repeats:,6,,,,,,Num Repeats:,30,,,,,,,
PGA Gain:,64,,,,,,PGA Gain:,64,,,,,,,
System Temp (C):,33.91,,,,,,System Temp (C):,27.52,,,,,,,
Humidity (%):,42.46,,,,,,Humidity (%):,73.2,,,,,,,
Lamp Intensity:,2437,,,,,,Lamp Intensity:,2274,,,,,,,
Data Date-Time:,27/10/20 @ 12:53:27,,,,,,Data Date-Time:,9/7/19 @ 16:39:9,,,,,,,
Total Measurement Time in sec:,1.8091557,,,,,,,,,,,,,,
,,,,,,,,,,,,,,,
***General Information***,,,,,,,***Calibration Coefficients***,,,,,,,
Model Name:,NIR-X-XX,,,,,,Shift Vector Coefficients:,-6.85384978732833,0.0551332794684546,-0.000110731550088635,,,,,
Serial Number:,925R021,(95UB122GC1A925R021),,,,,Pixel to Wavelength Coefficients:,1790.66412099084,-0.917492857141292,-0.000239200785115314,,,,,
GUI Version:,2.4.4,,,,,,Versions (Cal/Ref/Cfg):,1,3,1,,,,,
TIVA Version:,2.1.0.67,,,,,,***Lamp Usage * **,,,,,,,
DLPC Version:,2.0.0,,,,,,Total Time(HH:MM:SS):,NA,,,,,,
UUID:,DE:67:0C:88:67:19:47:21,,,,,,***Device/Error Status***,,,,,,,
Main Board Version:,D,,,,,,Device Status:,0x00000001,,,,,,
Detector Board Version:,B,,,,,,Error status:,0x00000000,Error Code:,0x00000000000000000000000000000000,,,,
,,,,,,,,,,,,,,,
***Scan Data***,,,,,,,,,,,,,,
Wavelength (nm),Absorbance (AU),Reference Signal (unitless),Sample Signal (unitless)
901.630473432251,0.5812172939921,102131,26788
905.531115772228,0.582579577765363,110950,29010
909.427452498074,0.586932819353574,119508,30936
913.319483609787,0.588511430469268,129795,33477
917.207209107368,0.597287310701561,143166,36187
921.090628990817,0.602624334388081,160172,39991
924.969743260134,0.608074908180322,180815,44582
930.13519799724,0.607778819346064,210522,51942
934.004265833582,0.608448136845732,231687,57076
937.869028055792,0.604338221569991,249996,62172
941.72948466387,0.601793629680542,265685,66462
945.585635657816,0.602575263811525,279147,69704
949.43748103763,0.60069911160147,291226,73035
953.285020803312,0.602392876408823,302792,75640
957.128254954862,0.604374037849596,314069,78100
960.967183492279,0.603390627241304,325247,81063
966.07905725352,0.605623408491581,339962,84296
969.907939357962,0.605719471583018,350977,87008
973.732515848273,0.6068447520443,361509,89387
977.552786724452,0.609433557177859,371608,91338
981.368751986498,0.608433731347604,380605,93765
985.180411634413,0.610893740352781,389074,95310
988.987765668195,0.611172845935027,396542,97077
992.790814087846,0.610646669902019,402965,98769
996.589556893364,0.61089707767322,408092,99968
1001.64784967874,0.613275401547449,414610,101010
1005.43654605128,0.612058815356666,417748,102060
1009.22093680969,0.613553144621589,419882,102229
1013.00102195397,0.612464855590103,421613,102908
1016.77680148412,0.611970934702729,422828,103322
1020.54827540013,0.61133831239949,423181,103559
1024.31544370202,0.612621590791489,422798,103160
1028.07830638977,0.612423707582366,422122,103042
1031.83686346339,0.611425781674349,421427,103109
1036.8415752729,0.611594946453928,420017,102724
1040.59008591354,0.610822136561978,418356,102500
1044.33429094005,0.610667212214155,416485,102078
1048.07419035243,0.609315462610643,415390,102127
1051.80978415068,0.608147796207748,414299,102133
1055.5410723348,0.607878057627544,413158,101915
1059.26805490478,0.609222210084052,412194,101363
1062.99073186063,0.608334397014141,411685,101445
1066.70910320235,0.608708194006814,411349,101275
1071.66023403599,0.608172708592453,411406,101414
1075.36855894474,0.608358674334481,412471,101633
1079.07257823935,0.608287746536568,413974,102020
1082.77229191983,0.60798181680306,415714,102521
1086.46769998618,0.607464225854363,417657,103123
1090.1588024384,0.60747370599853,419594,103599
1093.84559927648,0.607990010699971,422591,104215
1097.52809050043,0.607218794195354,425209,105047
1101.20627611025,0.606245220762347,428025,105980
1106.10382596803,0.606819809461784,432567,106963
1109.77196514487,0.60712809214836,436480,107854
1113.43579870759,0.607985580903856,440246,108570
1117.09532665617,0.608362301572178,443887,109373
1120.75054899062,0.609761666034706,447164,109826
1124.40146571093,0.611278124303253,450722,110314
1128.04807681712,0.61213772089576,454231,110953
1131.69038230917,0.611546269344977,457509,111906
1135.32838218709,0.611786685986352,460998,112697
1140.172351069,0.609929205773576,466130,114440
1143.80030451395,0.60910483145382,469905,115586
1147.42395234476,0.608246683597945,473615,116729
1151.04329456145,0.608897684593648,477816,117588
1154.658331164,0.608675744666966,482210,118730
1158.26906215241,0.608501624820425,486791,119906
1161.8754875267,0.609378968590914,491522,120827
1165.47760728685,0.609880206488064,496370,121878
1169.07542143287,0.610208436304782,501518,123049
1173.86580933892,0.611228226255315,508584,124490
1177.45357705197,0.612371501246822,514246,125545
1181.03703915088,0.61346229315998,520200,126680
1184.61619563566,0.611736144064515,526464,128716
1188.19104650631,0.612269258899896,532807,130107
1191.76159176283,0.61221592280565,539596,131781
1195.32783140522,0.612277680382531,546393,133422
1198.88976543347,0.612578816548025,553751,135125
1202.44739384759,0.613182734381171,560985,136700
1207.18420077777,0.612936429588754,570818,139175
1210.73178275892,0.613681206965982,578511,140809
1214.27505912594,0.61238448086118,586183,143103
1217.81402987882,0.613598545949502,593928,144589
1221.34869501757,0.613984801034284,601639,146336
1224.87905454219,0.614369622208703,609460,148107
1228.40510845267,0.615206452631296,617092,149673
1231.92685674903,0.615673718189656,624195,151233
1235.44429943125,0.6158826405525,631507,152931
1240.12752538557,0.616309467860662,640742,155015
1243.63492163481,0.615749819808718,646786,156679
1247.13801226993,0.616376004621444,651721,157647
1250.63679729091,0.615814438894992,656626,159039
1254.13127669776,0.616702852936747,663080,160274
1257.62145049048,0.616667870651981,672260,162506
1261.10731866907,0.617547938856513,682710,164698
1264.58888123353,0.617817657837207,693458,167187
1268.06613818385,0.616694185599172,703122,169956
1272.6957831623,0.617565818543034,715010,172483
1276.16299367965,0.618360899629851,722504,173972
1279.62589858286,0.618464684947672,730050,175747
1283.08449787195,0.619107759176198,736852,177122
1286.5387915469,0.618713394101724,742717,178694
1289.98877960772,0.618668194454935,748138,180017
1293.43446205441,0.619289979697358,753172,180969
1296.87583888696,0.619706604510561,757640,181868
1300.31291010539,0.619332348712783,761312,182907
1304.88897410797,0.619784692129383,765447,183709
1308.31599889342,0.619159197549475,767807,184541
1311.73871806474,0.619736594424011,770070,184839
1315.15713162192,0.620575906102207,771376,184795
1318.57123956497,0.619975729079606,772495,185319
1321.98104189389,0.620315049875616,773541,185425
1325.38653860868,0.620963076752952,774107,185284
1328.78772970934,0.62087942765109,774125,185324
1332.18461519586,0.621377802971422,773638,184995
1336.70709822258,0.622042239867886,773210,184610
1340.09393727613,0.621991478929312,772303,184415
1343.47647071555,0.622015025944622,770544,183985
1346.85469854083,0.623190859736193,768484,182997
1350.22862075199,0.624485146785767,765479,181739
1353.59823734901,0.62480102809529,761783,180730
1356.9635483319,0.625054893425329,757353,179574
1360.32455370065,0.625551784992355,753301,178409
1363.68125345528,0.626562159510651,750032,177222
1368.15015550613,0.627352042304026,745699,175878
1371.49680882778,0.627331898149625,742756,175192
1374.8391565353,0.626612143556133,737941,174345
1378.17719862868,0.626860927829466,730944,172593
1381.51093510794,0.627131732210259,722577,170511
1384.84036597306,0.627269223501897,714688,168596
1388.16549122405,0.628805294947958,708057,166442
1391.48631086091,0.628548008457486,702438,165219
1394.80282488363,0.629875687376924,697872,163644
1399.21814595862,0.631683878940564,693949,162048
1402.52461354837,0.632996425241926,692334,161183
1405.82677552399,0.634272745246334,691481,160512
1409.12463188548,0.636666751510191,690404,159381
1412.41818263283,0.635852790248254,689669,159510
1415.70742776605,0.636686237738332,689300,159119
1418.99236728514,0.637914354290891,688867,158570
1422.2730011901,0.637402941097216,688590,158693
1425.54932948093,0.637791711127592,688451,158519
1429.91106958005,0.636130121302831,688154,159058
1433.1773514379,0.637881760248401,688281,158447
1436.43932768162,0.636153622990356,687698,158944
1439.6969983112,0.635977352120755,687899,159055
1442.95036332666,0.635345697655861,687845,159274
1446.19942272798,0.634135506562587,687533,159646
1449.44417651517,0.63563887562578,687026,158977
1452.68462468823,0.63503560062982,686150,158995
1456.99852463033,0.634960293856632,684797,158709
1460.22892637041,0.635343768894856,683329,158229
1463.45502249637,0.635120593211034,680755,157714
1466.67681300819,0.635078880904456,678523,157212
1469.89429790587,0.635085569397719,676233,156679
1473.10747718943,0.635049392363627,673570,156075
1476.31635085885,0.634653205243264,670455,155495
1479.52091891415,0.63487473931205,667182,154657
1482.72118135531,0.634198229624771,663865,154128
1486.98150032154,0.634298566047682,658995,152962
1490.17171632972,0.63448156611025,655092,151992
1493.35762672377,0.633896367192952,651085,151266
1496.53923150369,0.634160131626998,646799,150179
1499.71653066948,0.633632826371572,642960,149469
1502.88952422114,0.634342784415451,638527,148196
1506.05821215866,0.633728336765369,633881,147326
1509.22259448206,0.633598864278766,629180,146277
1512.38267119132,0.632580720391089,624042,145423
1516.58940918168,0.633878683450754,616329,143197
1519.73943945797,0.633947261854274,611407,142031
1522.88516412012,0.634009685127053,605885,140728
1526.02658316814,0.63330278116884,600180,139630
1529.16369660203,0.633543860472892,594432,138216
1532.29650442179,0.634101513424618,588422,136643
1535.42500662741,0.634389127235919,582430,135162
1538.54920321891,0.63470412207902,575746,133514
1541.66909419627,0.634428630559901,569270,132096
1545.82225121076,0.633973864764668,560499,130197
1548.93209575515,0.634745971563871,553712,128392
1552.0376346854,0.634754815884946,545887,126575
1555.13886800153,0.63485180895082,538516,124838
1558.23579570352,0.634761258621641,531059,123135
1561.32841779137,0.635892295491599,523506,121068
1564.4167342651,0.636540999643889,515346,119003
1567.50074512469,0.636818672416766,507178,117042
1570.58045037016,0.638388304817199,498542,114634
1574.68002640879,0.637209716715921,486851,112250
1577.74968522127,0.638853875908627,477709,109726
1580.81503841963,0.639998370206497,468371,107298
1583.87608600385,0.640397576752312,459159,105091
1586.93282797394,0.641001585155605,449945,102839
1589.9852643299,0.641337297643828,440533,100610
1593.03339507173,0.642937938661807,431054,98083
1596.07722019942,0.64308929030408,422183,96031
1599.11673971298,0.643522337372627,412751,93792
1603.16273477575,0.644905185899717,400726,90770
1606.19220785634,0.646383716383068,391749,88435
1609.21737532279,0.648191360349224,382845,86066
1612.23823717512,0.649494112413713,373894,83802
1615.25479341331,0.651583544665996,364700,81349
1618.26704403737,0.652446680401361,355817,79210
1621.27498904729,0.653471047181885,346990,77063
1624.27862844309,0.656295218895337,338114,74605
1627.27796222475,0.658538122703779,329223,72269
1631.27037631165,0.658888854211638,317284,69592
1634.25966366034,0.662851060289111,308418,67033
1637.2446453949,0.666744535559667,299659,64548
1640.22532151532,0.672335864910732,290939,61868
1643.20169202161,0.682197438842257,282179,58658
1646.17375691377,0.689790688233761,273160,55799
1649.1415161918,0.697584447399523,263812,52931
1652.10496985569,0.704277788765555,254461,50274
1655.06411790546,0.710976788215853,244646,47595
1659.00295101649,0.719652065126443,229540,43773
1661.95205263328,0.715843593759109,216360,41623
1664.89684863594,0.702143353402178,201366,39980
1667.83733902446,0.684561139352043,183790,37998
1670.77352379886,0.659219397308831,164311,36012
1673.70540295912,0.634789653383901,143471,33264
1676.63297650524,0.613272522852291,123159,30005
1679.55624443724,0.597244405544209,104574,26435
1682.4752067551,0.595509098738508,88365,22427
1686.36045889027,0.586770588920122,70579,18277
1689.26937477516,0.589526492147982,60007,15441
1692.17398504592,0.578572655877738,51286,13534
1695.07428970255,0.579526360038088,43883,11555
1697.97028874504,0.58029145071155,37820,9941
1700.8619821734,0.590284098661676,32744,8411
