##TITLE=Column 1
##JCAMP-DX=4.24
##DATA TYPE=INFRARED SPECTRUM
##Method:,Column 1,Built-In Reference,,,Model Name,NIR-X-XX
##Host Date-Time:,27/10/20 @ 12:54:9,9/7/19 @ 16:39:9,,,GUI Version,2.4.4
##Header Version:,1,1,,,Tiva Version,2.1.0.67
##System Temp (C):,34.93,27.52,,,DLPC Version,2.0.0
##Detector Temp (C),0,0,,,UUID,DE:67:0C:88:67:19:47:21
##Humidity (%):,41.51,73.2,,,Main Board Version,D
##Lamp PD:,2450,2274
##Shift Vector Coefficients:,-6.85384978732833,0.0551332794684546,-0.000110731550088635
##Pixel to Wavelength Coefficients:,1790.66412099084,-0.917492857141292,-0.000239200785115314
##Serial Number:,925R021,925R021
##Scan Config Name:,Column 1,SystemTest
##Scan Config Type:,Column,Column
##Start wavelength (nm):,900,900
##End wavelength (nm):,1700,1700
##Pattern Pixel Width (nm):,7.03,7.03
##Exposure (ms):,0.635,0.635
##Digital Resolution:,228,228
##NPOINTS=228
##Num Repeats:,6,30
##PGA Gain:,64,64
##Total Measurement Time in sec:,1.7981723
##XUNITS=Wavelength(nm)
##YUNITS=Absorbance(AU)
##FIRSTX=901.630473432251
##LASTX=1700.8619821734
##PEAK TABLE=X+(Y..Y)
901.630473432251,0.797423161380215
905.531115772228,0.798874994268705
909.427452498074,0.790222518044081
913.319483609787,0.793444278232036
917.207209107368,0.795038278149162
921.090628990817,0.805397619338372
924.969743260134,0.800306936200887
930.13519799724,0.798278609012924
934.004265833582,0.794218653845741
937.869028055792,0.786379680289235
941.72948466387,0.783180567081103
945.585635657816,0.782245102619073
949.43748103763,0.778452589976135
953.285020803312,0.777002462721738
957.128254954862,0.775832962883171
960.967183492279,0.775617625173649
966.07905725352,0.778077162893059
969.907939357962,0.777225434811111
973.732515848273,0.775581995249014
977.552786724452,0.776224853598033
981.368751986498,0.777372602435446
985.180411634413,0.773684835661227
988.987765668195,0.776140735481987
992.790814087846,0.775751283926326
996.589556893364,0.774794972424457
1001.64784967874,0.774257478438465
1005.43654605128,0.774286597555349
1009.22093680969,0.774242594256634
1013.00102195397,0.77327045568829
1016.77680148412,0.772240530859733
1020.54827540013,0.774137671117498
1024.31544370202,0.771918002745184
1028.07830638977,0.774644766012447
1031.83686346339,0.771571920109891
1036.8415752729,0.771476682026158
1040.59008591354,0.772636738331888
1044.33429094005,0.773169464420337
1048.07419035243,0.773674527081088
1051.80978415068,0.775097934834296
1055.5410723348,0.774819278950403
1059.26805490478,0.775114830409838
1062.99073186063,0.77471005889328
1066.70910320235,0.77574546643704
1071.66023403599,0.777946505506815
1075.36855894474,0.778974351918164
1079.07257823935,0.777143200102756
1082.77229191983,0.776472539481017
1086.46769998618,0.779842190635077
1090.1588024384,0.781613753204289
1093.84559927648,0.779638813782913
1097.52809050043,0.781116163078832
1101.20627611025,0.779361379919886
1106.10382596803,0.781468026378561
1109.77196514487,0.780369771331725
1113.43579870759,0.782609273333331
1117.09532665617,0.780430017692283
1120.75054899062,0.782698919027827
1124.40146571093,0.783177205676782
1128.04807681712,0.784345871108904
1131.69038230917,0.783149270143057
1135.32838218709,0.783091216140826
1140.172351069,0.78264284229664
1143.80030451395,0.782445064871225
1147.42395234476,0.781331021278287
1151.04329456145,0.784208500272843
1154.658331164,0.7823013214372
1158.26906215241,0.783579917929202
1161.8754875267,0.7822865486832
1165.47760728685,0.783556891059981
1169.07542143287,0.782592004486542
1173.86580933892,0.783875981173553
1177.45357705197,0.784607268216535
1181.03703915088,0.785292601824291
1184.61619563566,0.782713883385472
1188.19104650631,0.782521761569508
1191.76159176283,0.783132765567179
1195.32783140522,0.78280925765105
1198.88976543347,0.782116566982077
1202.44739384759,0.780038888108767
1207.18420077777,0.778572953927961
1210.73178275892,0.777392944130272
1214.27505912594,0.77868130684774
1217.81402987882,0.776850159891259
1221.34869501757,0.777105103743276
1224.87905454219,0.776984173994207
1228.40510845267,0.775539664475415
1231.92685674903,0.774184759558591
1235.44429943125,0.775876082057031
1240.12752538557,0.773939559719959
1243.63492163481,0.774207563947242
1247.13801226993,0.77244009877692
1250.63679729091,0.773979379434729
1254.13127669776,0.77351664374632
1257.62145049048,0.774685642419787
1261.10731866907,0.774684205530911
1264.58888123353,0.774046075428981
1268.06613818385,0.772645830466988
1272.6957831623,0.7741439719844
1276.16299367965,0.77270474989322
1279.62589858286,0.774596538646235
1283.08449787195,0.77341255439793
1286.5387915469,0.775375038028744
1289.98877960772,0.773122001807629
1293.43446205441,0.774419297184022
1296.87583888696,0.77378243245898
1300.31291010539,0.773400338548101
1304.88897410797,0.773722858394237
1308.31599889342,0.773488991682461
1311.73871806474,0.773868239255551
1315.15713162192,0.773302726230512
1318.57123956497,0.774142787998541
1321.98104189389,0.774122595040856
1325.38653860868,0.773243733082575
1328.78772970934,0.772628554773201
1332.18461519586,0.772854073628034
1336.70709822258,0.772833403972933
1340.09393727613,0.773951285962106
1343.47647071555,0.772456726118394
1346.85469854083,0.773811322780418
1350.22862075199,0.772785070251518
1353.59823734901,0.773587695683109
1356.9635483319,0.772920443765363
1360.32455370065,0.772495089916334
1363.68125345528,0.773490797921072
1368.15015550613,0.775987213990181
1371.49680882778,0.775485002664438
1374.8391565353,0.774824165109563
1378.17719862868,0.774265087095377
1381.51093510794,0.77405414456905
1384.84036597306,0.774707299301611
1388.16549122405,0.774904629448331
1391.48631086091,0.774851144116452
1394.80282488363,0.776790519915044
1399.21814595862,0.777536494264156
1402.52461354837,0.779591385143867
1405.82677552399,0.780489536373669
1409.12463188548,0.779778486648447
1412.41818263283,0.780913758771731
1415.70742776605,0.781899806464532
1418.99236728514,0.780378015868249
1422.2730011901,0.781189216564398
1425.54932948093,0.780305818597757
1429.91106958005,0.780354321462988
1433.1773514379,0.781852557101993
1436.43932768162,0.777732123952579
1439.6969983112,0.778851965505267
1442.95036332666,0.77843104370388
1446.19942272798,0.777268440883374
1449.44417651517,0.777527147780138
1452.68462468823,0.776798858220586
1456.99852463033,0.777329478104019
1460.22892637041,0.777077851210259
1463.45502249637,0.777991151928493
1466.67681300819,0.777476512981093
1469.89429790587,0.777821913298747
1473.10747718943,0.776239223403587
1476.31635085885,0.776094306526282
1479.52091891415,0.777522898526496
1482.72118135531,0.77635789561388
1486.98150032154,0.775197679100691
1490.17171632972,0.775087312966036
1493.35762672377,0.774310835086029
1496.53923150369,0.773972826328016
1499.71653066948,0.775126287399325
1502.88952422114,0.7737667618707
1506.05821215866,0.774063163497571
1509.22259448206,0.772994038012955
1512.38267119132,0.773826031733359
1516.58940918168,0.774264247102011
1519.73943945797,0.773484749131088
1522.88516412012,0.773760225463302
1526.02658316814,0.774670216558182
1529.16369660203,0.77255883788199
1532.29650442179,0.772385539392309
1535.42500662741,0.774310243547214
1538.54920321891,0.773217490202718
1541.66909419627,0.773893858929481
1545.82225121076,0.772477166530375
1548.93209575515,0.770202286006124
1552.0376346854,0.772310600626883
1555.13886800153,0.770100391563575
1558.23579570352,0.771605358127991
1561.32841779137,0.772317127419337
1564.4167342651,0.770205028889331
1567.50074512469,0.769779114690729
1570.58045037016,0.768773600392696
1574.68002640879,0.767957084011947
1577.74968522127,0.768533683264847
1580.81503841963,0.768603432955677
1583.87608600385,0.767863131780232
1586.93282797394,0.767204853598517
1589.9852643299,0.768853491398777
1593.03339507173,0.768782371499443
1596.07722019942,0.767734167721316
1599.11673971298,0.7696666497513
1603.16273477575,0.765840214364473
1606.19220785634,0.766654456931777
1609.21737532279,0.767046978558822
1612.23823717512,0.766941904240924
1615.25479341331,0.768963068401826
1618.26704403737,0.767623224143287
1621.27498904729,0.766881600846504
1624.27862844309,0.76486459694626
1627.27796222475,0.766842944576461
1631.27037631165,0.765211073142383
1634.25966366034,0.766686787776145
1637.2446453949,0.764230194482422
1640.22532151532,0.766067088506403
1643.20169202161,0.766397764444951
1646.17375691377,0.770002093441013
1649.1415161918,0.774117034415216
1652.10496985569,0.771285052459053
1655.06411790546,0.769058688888439
1659.00295101649,0.769203975880338
1661.95205263328,0.762200873774883
1664.89684863594,0.75169520935951
1667.83733902446,0.73350768425839
1670.77352379886,0.718736990708093
1673.70540295912,0.696151898836467
1676.63297650524,0.679284329772154
1679.55624443724,0.66410632150078
1682.4752067551,0.660228204018158
1686.36045889027,0.657559978377017
1689.26937477516,0.656248331572515
1692.17398504592,0.647642509939751
1695.07428970255,0.649610270691088
1697.97028874504,0.662268922820542
1700.8619821734,0.660643506592783
##END=
