##TITLE=Column 1
##JCAMP-DX=4.24
##DATA TYPE=INFRARED SPECTRUM
##Method:,Column 1,Built-In Reference,,,Model Name,NIR-X-XX
##Host Date-Time:,27/10/20 @ 12:52:58,9/7/19 @ 16:39:9,,,GUI Version,2.4.4
##Header Version:,1,1,,,Tiva Version,2.1.0.67
##System Temp (C):,33.16,27.52,,,DLPC Version,2.0.0
##Detector Temp (C),0,0,,,UUID,DE:67:0C:88:67:19:47:21
##Humidity (%):,43.16,73.2,,,Main Board Version,D
##Lamp PD:,2420,2274
##Shift Vector Coefficients:,-6.85384978732833,0.0551332794684546,-0.000110731550088635
##Pixel to Wavelength Coefficients:,1790.66412099084,-0.917492857141292,-0.000239200785115314
##Serial Number:,925R021,925R021
##Scan Config Name:,Column 1,SystemTest
##Scan Config Type:,Column,Column
##Start wavelength (nm):,900,900
##End wavelength (nm):,1700,1700
##Pattern Pixel Width (nm):,7.03,7.03
##Exposure (ms):,0.635,0.635
##Digital Resolution:,228,228
##NPOINTS=228
##Num Repeats:,6,30
##PGA Gain:,64,64
##Total Measurement Time in sec:,1.811149
##XUNITS=Wavelength(nm)
##YUNITS=Reflectance(AU)
##FIRSTX=901.630473432251
##LASTX=1700.8619821734
##PEAK TABLE=X+(Y..Y)
901.630473432251,0.15157004239653
905.531115772228,0.153961243803515
909.427452498074,0.153554573752385
913.319483609787,0.152132208482607
917.207209107368,0.148708492239778
921.090628990817,0.149158404714931
924.969743260134,0.147880430274037
930.13519799724,0.146412251451155
934.004265833582,0.149684703932461
937.869028055792,0.150150402406439
941.72948466387,0.150463895214257
945.585635657816,0.151776662475327
949.43748103763,0.153018617843187
953.285020803312,0.150839520198684
957.128254954862,0.150874489363802
960.967183492279,0.150494854679674
966.07905725352,0.149834393255717
969.907939357962,0.149363063676537
973.732515848273,0.149949240544495
977.552786724452,0.148850401498353
981.368751986498,0.147530904743763
985.180411634413,0.147576039519474
988.987765668195,0.148274331596653
992.790814087846,0.147625724318489
996.589556893364,0.14682718602668
1001.64784967874,0.146559417283712
1005.43654605128,0.147012074264868
1009.22093680969,0.147570031580301
1013.00102195397,0.147108841520541
1016.77680148412,0.147021956918652
1020.54827540013,0.146244751063966
1024.31544370202,0.14696852870638
1028.07830638977,0.146166274205088
1031.83686346339,0.146039527605018
1036.8415752729,0.146691681527176
1040.59008591354,0.147453365076633
1044.33429094005,0.147376256047637
1048.07419035243,0.14638291725848
1051.80978415068,0.147560095486593
1055.5410723348,0.147541618460734
1059.26805490478,0.147891526805339
1062.99073186063,0.148045228754995
1066.70910320235,0.14744657213218
1071.66023403599,0.146677491334594
1075.36855894474,0.146747286475898
1079.07257823935,0.146279718049926
1082.77229191983,0.146745118037882
1086.46769998618,0.146850166524205
1090.1588024384,0.147137470983856
1093.84559927648,0.146993191998883
1097.52809050043,0.147122944246241
1101.20627611025,0.146598913614859
1106.10382596803,0.147228059468244
1109.77196514487,0.146091458944282
1113.43579870759,0.146811101066222
1117.09532665617,0.146404377690719
1120.75054899062,0.147008703741804
1124.40146571093,0.1465182529364
1128.04807681712,0.146674269259474
1131.69038230917,0.146438649294331
1135.32838218709,0.147150313016542
1140.172351069,0.14708128633643
1143.80030451395,0.148015024313425
1147.42395234476,0.148536258353304
1151.04329456145,0.148705777956368
1154.658331164,0.148584641546214
1158.26906215241,0.148870870661126
1161.8754875267,0.148552862333731
1165.47760728685,0.148600842113746
1169.07542143287,0.148919879246607
1173.86580933892,0.148923285042392
1177.45357705197,0.149943801215761
1181.03703915088,0.149204152249135
1184.61619563566,0.149977966204717
1188.19104650631,0.149061480048123
1191.76159176283,0.1495896930296
1195.32783140522,0.149436394682948
1198.88976543347,0.149782122289621
1202.44739384759,0.150380134941219
1207.18420077777,0.149986510586562
1210.73178275892,0.150043819391507
1214.27505912594,0.149965113283736
1217.81402987882,0.150545183928018
1221.34869501757,0.149963682540527
1224.87905454219,0.149660355068421
1228.40510845267,0.150191543562386
1231.92685674903,0.149738463140525
1235.44429943125,0.149591374284054
1240.12752538557,0.149646815723021
1243.63492163481,0.149615174107046
1247.13801226993,0.149616170109602
1250.63679729091,0.149045270823878
1254.13127669776,0.148894552693491
1257.62145049048,0.148795109035195
1261.10731866907,0.148997378096117
1264.58888123353,0.148497818180769
1268.06613818385,0.148900190863037
1272.6957831623,0.147831498860156
1276.16299367965,0.148049007341136
1279.62589858286,0.147961098554894
1283.08449787195,0.147941513356821
1286.5387915469,0.14778307215265
1289.98877960772,0.147359177050223
1293.43446205441,0.146853573951236
1296.87583888696,0.147220315717227
1300.31291010539,0.147344321382035
1304.88897410797,0.147117958526194
1308.31599889342,0.146921036145802
1311.73871806474,0.147169737816043
1315.15713162192,0.147010018460517
1318.57123956497,0.147005482236131
1321.98104189389,0.146638639710112
1325.38653860868,0.146802702985505
1328.78772970934,0.146880671726142
1332.18461519586,0.146335883190846
1336.70709822258,0.14658889564284
1340.09393727613,0.146067022917171
1343.47647071555,0.146083805726863
1346.85469854083,0.146170902712353
1350.22862075199,0.14622870124458
1353.59823734901,0.145565075618647
1356.9635483319,0.146017775066581
1360.32455370065,0.145811568018627
1363.68125345528,0.145177805746955
1368.15015550613,0.145413900246614
1371.49680882778,0.145133798986477
1374.8391565353,0.14535714914878
1378.17719862868,0.145548769809999
1381.51093510794,0.145606627390576
1384.84036597306,0.145380921465031
1388.16549122405,0.145515120957776
1391.48631086091,0.145386496744197
1394.80282488363,0.14489046701974
1399.21814595862,0.143777136360165
1402.52461354837,0.143794758021417
1405.82677552399,0.143321363855261
1409.12463188548,0.143104617006854
1412.41818263283,0.142321896445976
1415.70742776605,0.143098795879878
1418.99236728514,0.142734373979302
1422.2730011901,0.142809218838496
1425.54932948093,0.142745090064507
1429.91106958005,0.143247005757432
1433.1773514379,0.143050585444026
1436.43932768162,0.14286358256095
1439.6969983112,0.143211430747828
1442.95036332666,0.143292456876186
1446.19942272798,0.143027316506989
1449.44417651517,0.143598641099463
1452.68462468823,0.143678495955695
1456.99852463033,0.143369494901409
1460.22892637041,0.143272128067154
1463.45502249637,0.144109114145324
1466.67681300819,0.143538244097842
1469.89429790587,0.143490483309747
1473.10747718943,0.143658417091022
1476.31635085885,0.143705394098038
1479.52091891415,0.14403715927588
1482.72118135531,0.143434282572511
1486.98150032154,0.143582273006624
1490.17171632972,0.143991988911481
1493.35762672377,0.143512751791241
1496.53923150369,0.143837575506456
1499.71653066948,0.144330907054871
1502.88952422114,0.144401098152467
1506.05821215866,0.144443515423242
1509.22259448206,0.144283035061509
1512.38267119132,0.14471141365485
1516.58940918168,0.144018860056885
1519.73943945797,0.145022873470536
1522.88516412012,0.144908687292143
1526.02658316814,0.145141457562731
1529.16369660203,0.144712936046512
1532.29650442179,0.144647888760108
1535.42500662741,0.144467146266504
1538.54920321891,0.145079601074085
1541.66909419627,0.144309378677956
1545.82225121076,0.14486555729805
1548.93209575515,0.144526396393793
1552.0376346854,0.144346723772502
1555.13886800153,0.144662368434735
1558.23579570352,0.144722149516344
1561.32841779137,0.144936256700019
1564.4167342651,0.145515828200859
1567.50074512469,0.1450417802034
1570.58045037016,0.145283647114987
1574.68002640879,0.145023836861791
1577.74968522127,0.144481263698193
1580.81503841963,0.144011905092331
1583.87608600385,0.143259742267929
1586.93282797394,0.144719910211248
1589.9852643299,0.14438645913019
1593.03339507173,0.144587453080125
1596.07722019942,0.143186722345523
1599.11673971298,0.144188627041485
1603.16273477575,0.144140884295005
1606.19220785634,0.144115237052296
1609.21737532279,0.142812365317557
1612.23823717512,0.142494931718615
1615.25479341331,0.142854400877434
1618.26704403737,0.142862763724049
1621.27498904729,0.143116516326119
1624.27862844309,0.142549554292339
1627.27796222475,0.141074590778895
1631.27037631165,0.142099822241273
1634.25966366034,0.140617603382423
1637.2446453949,0.141046990078723
1640.22532151532,0.139121946524873
1643.20169202161,0.138660212134851
1646.17375691377,0.138061941719139
1649.1415161918,0.136616226706897
1652.10496985569,0.134896899721372
1655.06411790546,0.13361755352632
1659.00295101649,0.133540995033545
1661.95205263328,0.13512201885746
1664.89684863594,0.137188005919569
1667.83733902446,0.143696610261712
1670.77352379886,0.149095313156149
1673.70540295912,0.154595702267357
1676.63297650524,0.161181886829221
1679.55624443724,0.165882532943179
1682.4752067551,0.172002489673513
1686.36045889027,0.165658340299523
1689.26937477516,0.167947072841502
1692.17398504592,0.176012947003081
1695.07428970255,0.175603308798396
1697.97028874504,0.166340560549974
1700.8619821734,0.163266552650867
##END=
