##TITLE=Column 1
##JCAMP-DX=4.24
##DATA TYPE=INFRARED SPECTRUM
##Method:,Column 1,Built-In Reference,,,Model Name,NIR-X-XX
##Host Date-Time:,27/10/20 @ 12:53:9,9/7/19 @ 16:39:9,,,GUI Version,2.4.4
##Header Version:,1,1,,,Tiva Version,2.1.0.67
##System Temp (C):,33.44,27.52,,,DLPC Version,2.0.0
##Detector Temp (C),0,0,,,UUID,DE:67:0C:88:67:19:47:21
##Humidity (%):,42.88,73.2,,,Main Board Version,D
##Lamp PD:,2428,2274
##Shift Vector Coefficients:,-6.85384978732833,0.0551332794684546,-0.000110731550088635
##Pixel to Wavelength Coefficients:,1790.66412099084,-0.917492857141292,-0.000239200785115314
##Serial Number:,925R021,925R021
##Scan Config Name:,Column 1,SystemTest
##Scan Config Type:,Column,Column
##Start wavelength (nm):,900,900
##End wavelength (nm):,1700,1700
##Pattern Pixel Width (nm):,7.03,7.03
##Exposure (ms):,0.635,0.635
##Digital Resolution:,228,228
##NPOINTS=228
##Num Repeats:,6,30
##PGA Gain:,64,64
##Total Measurement Time in sec:,1.7971703
##XUNITS=Wavelength(nm)
##YUNITS=Absorbance(AU)
##FIRSTX=901.630473432251
##LASTX=1700.8619821734
##PEAK TABLE=X+(Y..Y)
901.630473432251,0.553019387705951
905.531115772228,0.542741159693857
909.427452498074,0.544120740839589
913.319483609787,0.545161890752114
917.207209107368,0.553921068436818
921.090628990817,0.552882254565624
924.969743260134,0.555269484238684
930.13519799724,0.55672106685705
934.004265833582,0.553011776899224
937.869028055792,0.54926986594222
941.72948466387,0.547895161022192
945.585635657816,0.546778896839373
949.43748103763,0.544106818912321
953.285020803312,0.545415505677452
957.128254954862,0.545308803484591
960.967183492279,0.546245319230942
966.07905725352,0.546093733798942
969.907939357962,0.548740718319197
973.732515848273,0.547060652812586
977.552786724452,0.548424491930284
981.368751986498,0.547521474538488
985.180411634413,0.548110797077643
988.987765668195,0.54757311412885
992.790814087846,0.549556520252943
996.589556893364,0.549512997079253
1001.64784967874,0.550539145943387
1005.43654605128,0.551597855505631
1009.22093680969,0.550362836134861
1013.00102195397,0.550163359965869
1016.77680148412,0.549851050930182
1020.54827540013,0.55066909949116
1024.31544370202,0.550644359326141
1028.07830638977,0.550895808891158
1031.83686346339,0.549971723092305
1036.8415752729,0.553273357764586
1040.59008591354,0.552711039761503
1044.33429094005,0.552923162670494
1048.07419035243,0.554121614865429
1051.80978415068,0.554033080022444
1055.5410723348,0.555886861479887
1059.26805490478,0.55708203342056
1062.99073186063,0.559060570952257
1066.70910320235,0.558281948978278
1071.66023403599,0.560953957608648
1075.36855894474,0.560267480521968
1079.07257823935,0.561824175842342
1082.77229191983,0.561874561015356
1086.46769998618,0.560756835761567
1090.1588024384,0.564650073255517
1093.84559927648,0.563906409737752
1097.52809050043,0.564462808702014
1101.20627611025,0.564960584350429
1106.10382596803,0.565055587585924
1109.77196514487,0.565477043654676
1113.43579870759,0.566273002916949
1117.09532665617,0.566022359334476
1120.75054899062,0.566004951593586
1124.40146571093,0.568054710782847
1128.04807681712,0.567456407499105
1131.69038230917,0.56765444159575
1135.32838218709,0.567749010663672
1140.172351069,0.56649206543862
1143.80030451395,0.564895108798048
1147.42395234476,0.56515905451388
1151.04329456145,0.564162980035962
1154.658331164,0.565179918356713
1158.26906215241,0.563615001110592
1161.8754875267,0.564519195444925
1165.47760728685,0.565146961763695
1169.07542143287,0.565978702255294
1173.86580933892,0.563826192598404
1177.45357705197,0.566437969352923
1181.03703915088,0.565911406311384
1184.61619563566,0.56565317947308
1188.19104650631,0.564274419172907
1191.76159176283,0.563783428329385
1195.32783140522,0.564027483382914
1198.88976543347,0.562919090793128
1202.44739384759,0.563647128894714
1207.18420077777,0.563668259048777
1210.73178275892,0.56298985790647
1214.27505912594,0.563758546719032
1217.81402987882,0.563385846583417
1221.34869501757,0.564237985904205
1224.87905454219,0.563739689656386
1228.40510845267,0.564270961254878
1231.92685674903,0.564432182436449
1235.44429943125,0.564953258014561
1240.12752538557,0.564166610130092
1243.63492163481,0.564510761910165
1247.13801226993,0.564481835662721
1250.63679729091,0.564693169397573
1254.13127669776,0.565079098411334
1257.62145049048,0.565637111708898
1261.10731866907,0.566489769585237
1264.58888123353,0.567632251187574
1268.06613818385,0.567418489201658
1272.6957831623,0.567698484150299
1276.16299367965,0.567746812284965
1279.62589858286,0.566766384850021
1283.08449787195,0.568027711552577
1286.5387915469,0.568793472061011
1289.98877960772,0.568823885536046
1293.43446205441,0.569021760309666
1296.87583888696,0.569322093608595
1300.31291010539,0.569433999831019
1304.88897410797,0.569396951271457
1308.31599889342,0.569651134029535
1311.73871806474,0.570010520078185
1315.15713162192,0.569618489255554
1318.57123956497,0.570222965219259
1321.98104189389,0.570699878626894
1325.38653860868,0.569774094555301
1328.78772970934,0.570749846014125
1332.18461519586,0.570766870576875
1336.70709822258,0.570526539215296
1340.09393727613,0.571381202976166
1343.47647071555,0.571608270989759
1346.85469854083,0.572499780586591
1350.22862075199,0.572255692838122
1353.59823734901,0.573743033998191
1356.9635483319,0.573759973265042
1360.32455370065,0.573612626448748
1363.68125345528,0.574516914919132
1368.15015550613,0.575183907927088
1371.49680882778,0.574338932455918
1374.8391565353,0.574873523189188
1378.17719862868,0.575149868161228
1381.51093510794,0.575191763697283
1384.84036597306,0.574787259189746
1388.16549122405,0.574945831090438
1391.48631086091,0.576383487169884
1394.80282488363,0.577318283989513
1399.21814595862,0.577977954158819
1402.52461354837,0.579240827885547
1405.82677552399,0.580659624251296
1409.12463188548,0.580842056723643
1412.41818263283,0.582168311194301
1415.70742776605,0.582258420241421
1418.99236728514,0.581561942359043
1422.2730011901,0.58200111717243
1425.54932948093,0.581780969759514
1429.91106958005,0.58105447160278
1433.1773514379,0.581329479784168
1436.43932768162,0.580343483360827
1439.6969983112,0.580134128778096
1442.95036332666,0.579485811654911
1446.19942272798,0.579164116972714
1449.44417651517,0.57920582870342
1452.68462468823,0.579369595495608
1456.99852463033,0.57852919750155
1460.22892637041,0.578121368322493
1463.45502249637,0.57837751468939
1466.67681300819,0.578464138028171
1469.89429790587,0.578253814159007
1473.10747718943,0.5778968625245
1476.31635085885,0.578295779929768
1479.52091891415,0.57764234895799
1482.72118135531,0.578332541958224
1486.98150032154,0.578163180072212
1490.17171632972,0.577373439277277
1493.35762672377,0.578030976123158
1496.53923150369,0.576847214488787
1499.71653066948,0.576660845979609
1502.88952422114,0.57695604937678
1506.05821215866,0.575400097004895
1509.22259448206,0.575931028896725
1512.38267119132,0.57567906506211
1516.58940918168,0.575034963405128
1519.73943945797,0.57490014708172
1522.88516412012,0.574381741970674
1526.02658316814,0.573711189585075
1529.16369660203,0.574530740114335
1532.29650442179,0.573474016257937
1535.42500662741,0.573181116433721
1538.54920321891,0.571701786553385
1541.66909419627,0.572344729450273
1545.82225121076,0.572732649949538
1548.93209575515,0.572614526950804
1552.0376346854,0.57193858325645
1555.13886800153,0.570910198139633
1558.23579570352,0.570089271025943
1561.32841779137,0.569924374953901
1564.4167342651,0.569121603911999
1567.50074512469,0.567730332163586
1570.58045037016,0.567036758854484
1574.68002640879,0.566424214262925
1577.74968522127,0.566260281906093
1580.81503841963,0.566113128742059
1583.87608600385,0.564608598348242
1586.93282797394,0.565456078766746
1589.9852643299,0.564837012748502
1593.03339507173,0.564209304631702
1596.07722019942,0.563325040925614
1599.11673971298,0.56322890542827
1603.16273477575,0.563314433675732
1606.19220785634,0.561740853513206
1609.21737532279,0.561767507295741
1612.23823717512,0.562321323226689
1615.25479341331,0.561649223503465
1618.26704403737,0.561318794624995
1621.27498904729,0.562337423886796
1624.27862844309,0.562555359293132
1627.27796222475,0.560726432093627
1631.27037631165,0.561534739011261
1634.25966366034,0.564974189194801
1637.2446453949,0.567435143905394
1640.22532151532,0.573632517730386
1643.20169202161,0.579758048732828
1646.17375691377,0.586144682210816
1649.1415161918,0.59234478737995
1652.10496985569,0.600746097274323
1655.06411790546,0.605607076393441
1659.00295101649,0.606678286830194
1661.95205263328,0.601097565489432
1664.89684863594,0.58881041750734
1667.83733902446,0.571025920553058
1670.77352379886,0.546117328730439
1673.70540295912,0.524428331154045
1676.63297650524,0.504543175112718
1679.55624443724,0.490417086675805
1682.4752067551,0.479160754775697
1686.36045889027,0.470350291161251
1689.26937477516,0.483735688956221
1692.17398504592,0.464387468134281
1695.07428970255,0.474919891439633
1697.97028874504,0.479909117143732
1700.8619821734,0.485220626724769
##END=
