##TITLE=Column 1
##JCAMP-DX=4.24
##DATA TYPE=INFRARED SPECTRUM
##Method:,Column 1,Built-In Reference,,,Model Name,NIR-X-XX
##Host Date-Time:,27/10/20 @ 12:54:6,9/7/19 @ 16:39:9,,,GUI Version,2.4.4
##Header Version:,1,1,,,Tiva Version,2.1.0.67
##System Temp (C):,34.87,27.52,,,DLPC Version,2.0.0
##Detector Temp (C),0,0,,,UUID,DE:67:0C:88:67:19:47:21
##Humidity (%):,41.55,73.2,,,Main Board Version,D
##Lamp PD:,2450,2274
##Shift Vector Coefficients:,-6.85384978732833,0.0551332794684546,-0.000110731550088635
##Pixel to Wavelength Coefficients:,1790.66412099084,-0.917492857141292,-0.000239200785115314
##Serial Number:,925R021,925R021
##Scan Config Name:,Column 1,SystemTest
##Scan Config Type:,Column,Column
##Start wavelength (nm):,900,900
##End wavelength (nm):,1700,1700
##Pattern Pixel Width (nm):,7.03,7.03
##Exposure (ms):,0.635,0.635
##Digital Resolution:,228,228
##NPOINTS=228
##Num Repeats:,6,30
##PGA Gain:,64,64
##Total Measurement Time in sec:,1.7891849
##XUNITS=Wavelength(nm)
##YUNITS=Absorbance(AU)
##FIRSTX=901.630473432251
##LASTX=1700.8619821734
##PEAK TABLE=X+(Y..Y)
901.630473432251,0.609985927369406
905.531115772228,0.615019986651309
909.427452498074,0.620120792357257
913.319483609787,0.622878042767535
917.207209107368,0.637325951239127
921.090628990817,0.638479224795311
924.969743260134,0.653711188400726
930.13519799724,0.653785357555451
934.004265833582,0.653533169555981
937.869028055792,0.652545938584728
941.72948466387,0.651231789354888
945.585635657816,0.654696939021785
949.43748103763,0.65660718478647
953.285020803312,0.660607982809639
957.128254954862,0.661220394048141
960.967183492279,0.666451916128239
966.07905725352,0.668428893226344
969.907939357962,0.672277935116379
973.732515848273,0.673765629985968
977.552786724452,0.677723276307066
981.368751986498,0.678498810241587
985.180411634413,0.680160736447152
988.987765668195,0.682878803647677
992.790814087846,0.683783742651308
996.589556893364,0.684014457723206
1001.64784967874,0.685018900419215
1005.43654605128,0.687361294294456
1009.22093680969,0.686216598175983
1013.00102195397,0.684492147194332
1016.77680148412,0.687694050539394
1020.54827540013,0.686557869939891
1024.31544370202,0.686119755437728
1028.07830638977,0.686183385348434
1031.83686346339,0.685253025714204
1036.8415752729,0.685473242031231
1040.59008591354,0.683777434903815
1044.33429094005,0.683337022699982
1048.07419035243,0.68199256321818
1051.80978415068,0.681982992687207
1055.5410723348,0.680860884656638
1059.26805490478,0.679710294464639
1062.99073186063,0.679113201616382
1066.70910320235,0.678798916751049
1071.66023403599,0.677048711955059
1075.36855894474,0.674583187988989
1079.07257823935,0.67507918512227
1082.77229191983,0.671150204756913
1086.46769998618,0.671312660673874
1090.1588024384,0.670914047230844
1093.84559927648,0.670073809974407
1097.52809050043,0.665518559334945
1101.20627611025,0.66534148865648
1106.10382596803,0.662505300336644
1109.77196514487,0.660629987252575
1113.43579870759,0.659631900427634
1117.09532665617,0.657022393217311
1120.75054899062,0.655226630514026
1124.40146571093,0.655091647203814
1128.04807681712,0.656591126518003
1131.69038230917,0.654383102262401
1135.32838218709,0.651558088843625
1140.172351069,0.650681016876377
1143.80030451395,0.649519834045294
1147.42395234476,0.648120699849983
1151.04329456145,0.646694303791615
1154.658331164,0.646763020427464
1158.26906215241,0.646969669450951
1161.8754875267,0.648282882100242
1165.47760728685,0.64657974752925
1169.07542143287,0.647015958233158
1173.86580933892,0.648092344134076
1177.45357705197,0.649138263617008
1181.03703915088,0.650012208138208
1184.61619563566,0.649681780141577
1188.19104650631,0.649252899330392
1191.76159176283,0.650872686980036
1195.32783140522,0.650917529284613
1198.88976543347,0.652622745544571
1202.44739384759,0.651468345249552
1207.18420077777,0.65271103715631
1210.73178275892,0.652075550337419
1214.27505912594,0.653635765570742
1217.81402987882,0.655393004651587
1221.34869501757,0.656553431224559
1224.87905454219,0.655938867844428
1228.40510845267,0.657482127924542
1231.92685674903,0.658523644228325
1235.44429943125,0.659731877552656
1240.12752538557,0.661231942430649
1243.63492163481,0.660572347969354
1247.13801226993,0.66192325888152
1250.63679729091,0.66367391452641
1254.13127669776,0.662748269291469
1257.62145049048,0.664680247562107
1261.10731866907,0.665323541546548
1264.58888123353,0.666992353749811
1268.06613818385,0.66773748122034
1272.6957831623,0.667570439238735
1276.16299367965,0.668040892260307
1279.62589858286,0.668832713362958
1283.08449787195,0.669152188593775
1286.5387915469,0.669368884385429
1289.98877960772,0.670087080383973
1293.43446205441,0.67030033560462
1296.87583888696,0.67130919305506
1300.31291010539,0.670695947294673
1304.88897410797,0.671855430100013
1308.31599889342,0.669802218760925
1311.73871806474,0.671495732617958
1315.15713162192,0.671472632190542
1318.57123956497,0.67218939327626
1321.98104189389,0.67214586344606
1325.38653860868,0.672112669285871
1328.78772970934,0.67241556378918
1332.18461519586,0.672255742900368
1336.70709822258,0.672179084064344
1340.09393727613,0.672830018835489
1343.47647071555,0.673202662078335
1346.85469854083,0.673332672048817
1350.22862075199,0.67244964388029
1353.59823734901,0.673755569489962
1356.9635483319,0.674570780347749
1360.32455370065,0.67462737793189
1363.68125345528,0.674379737712062
1368.15015550613,0.674836529246085
1371.49680882778,0.674354951123835
1374.8391565353,0.675052970633192
1378.17719862868,0.674320807282304
1381.51093510794,0.674286384278317
1384.84036597306,0.675266110655493
1388.16549122405,0.675238245357136
1391.48631086091,0.675707048935044
1394.80282488363,0.678584884447711
1399.21814595862,0.678999176550413
1402.52461354837,0.680030249477401
1405.82677552399,0.681514279903428
1409.12463188548,0.683199708883274
1412.41818263283,0.683936828746559
1415.70742776605,0.683342620343932
1418.99236728514,0.683443669910729
1422.2730011901,0.68448122138136
1425.54932948093,0.684710864612688
1429.91106958005,0.68400184431889
1433.1773514379,0.682654541524432
1436.43932768162,0.682079946368811
1439.6969983112,0.68181524721769
1442.95036332666,0.680926290873374
1446.19942272798,0.681020082599529
1449.44417651517,0.681212160051881
1452.68462468823,0.681174150500168
1456.99852463033,0.679609732865185
1460.22892637041,0.680549920617309
1463.45502249637,0.680788139416515
1466.67681300819,0.681582266447541
1469.89429790587,0.680926532192456
1473.10747718943,0.680854808144704
1476.31635085885,0.680241598250575
1479.52091891415,0.679685679673698
1482.72118135531,0.679730984349143
1486.98150032154,0.679402893905958
1490.17171632972,0.679233165009766
1493.35762672377,0.678180632053512
1496.53923150369,0.679262952182608
1499.71653066948,0.678532726071285
1502.88952422114,0.678268971452042
1506.05821215866,0.679532995436643
1509.22259448206,0.677829354515848
1512.38267119132,0.679277293927712
1516.58940918168,0.679387888589014
1519.73943945797,0.679609293334494
1522.88516412012,0.679219574688456
1526.02658316814,0.679198530338339
1529.16369660203,0.678211348919503
1532.29650442179,0.679557874784625
1535.42500662741,0.678730861955737
1538.54920321891,0.679193427952162
1541.66909419627,0.679508649157522
1545.82225121076,0.680522629983986
1548.93209575515,0.679189258344639
1552.0376346854,0.681055907765394
1555.13886800153,0.680842059252605
1558.23579570352,0.680183815422847
1561.32841779137,0.681997484503624
1564.4167342651,0.680961206193423
1567.50074512469,0.680937529780361
1570.58045037016,0.682560036577548
1574.68002640879,0.683444645437093
1577.74968522127,0.684243868647003
1580.81503841963,0.684476919701423
1583.87608600385,0.685452641912253
1586.93282797394,0.684620447158041
1589.9852643299,0.685906947296456
1593.03339507173,0.686069809456758
1596.07722019942,0.68809820873433
1599.11673971298,0.689906927940376
1603.16273477575,0.691828482642394
1606.19220785634,0.693247565020946
1609.21737532279,0.697492146342716
1612.23823717512,0.694548519265633
1615.25479341331,0.697145921456599
1618.26704403737,0.699907181042442
1621.27498904729,0.701033790702834
1624.27862844309,0.704715996593637
1627.27796222475,0.705111656893208
1631.27037631165,0.708307620339997
1634.25966366034,0.708404875842919
1637.2446453949,0.711338851954338
1640.22532151532,0.717783039856184
1643.20169202161,0.719169652688217
1646.17375691377,0.723691659986867
1649.1415161918,0.728650286415692
1652.10496985569,0.730732544600981
1655.06411790546,0.735229106433468
1659.00295101649,0.738685816411535
1661.95205263328,0.731794399186483
1664.89684863594,0.718852667851273
1667.83733902446,0.709106472636933
1670.77352379886,0.688101178073587
1673.70540295912,0.659281588003925
1676.63297650524,0.643525324158051
1679.55624443724,0.629673061447833
1682.4752067551,0.6230488136769
1686.36045889027,0.617103975228908
1689.26937477516,0.609557138229997
1692.17398504592,0.618402207215131
1695.07428970255,0.618385703502295
1697.97028874504,0.615636443991661
1700.8619821734,0.620594146641467
##END=
