##TITLE=Column 1
##JCAMP-DX=4.24
##DATA TYPE=INFRARED SPECTRUM
##Method:,Column 1,Built-In Reference,,,Model Name,NIR-X-XX
##Host Date-Time:,27/10/20 @ 12:53:51,9/7/19 @ 16:39:9,,,GUI Version,2.4.4
##Header Version:,1,1,,,Tiva Version,2.1.0.67
##System Temp (C):,34.48,27.52,,,DLPC Version,2.0.0
##Detector Temp (C),0,0,,,UUID,DE:67:0C:88:67:19:47:21
##Humidity (%):,41.91,73.2,,,Main Board Version,D
##Lamp PD:,2445,2274
##Shift Vector Coefficients:,-6.85384978732833,0.0551332794684546,-0.000110731550088635
##Pixel to Wavelength Coefficients:,1790.66412099084,-0.917492857141292,-0.000239200785115314
##Serial Number:,925R021,925R021
##Scan Config Name:,Column 1,SystemTest
##Scan Config Type:,Column,Column
##Start wavelength (nm):,900,900
##End wavelength (nm):,1700,1700
##Pattern Pixel Width (nm):,7.03,7.03
##Exposure (ms):,0.635,0.635
##Digital Resolution:,228,228
##NPOINTS=228
##Num Repeats:,6,30
##PGA Gain:,64,64
##Total Measurement Time in sec:,1.816143
##XUNITS=Wavelength(nm)
##YUNITS=Reflectance(AU)
##FIRSTX=901.630473432251
##LASTX=1700.8619821734
##PEAK TABLE=X+(Y..Y)
901.630473432251,0.272923989777834
905.531115772228,0.273952230734565
909.427452498074,0.275596612779061
913.319483609787,0.276058399784275
917.207209107368,0.272592654680581
921.090628990817,0.273687036435831
924.969743260134,0.272588004313801
930.13519799724,0.271705569964184
934.004265833582,0.274111193118302
937.869028055792,0.279096465543449
941.72948466387,0.281393379377835
945.585635657816,0.283803873944553
949.43748103763,0.284274068936153
953.285020803312,0.286239398663109
957.128254954862,0.2868414265655
960.967183492279,0.284977263433637
966.07905725352,0.285952547637677
969.907939357962,0.285078509417996
973.732515848273,0.285403682895861
977.552786724452,0.283860950248649
981.368751986498,0.285098724399312
985.180411634413,0.284349506777631
988.987765668195,0.285054294374871
992.790814087846,0.284833670418026
996.589556893364,0.284837732668124
1001.64784967874,0.284161018788741
1005.43654605128,0.284121049053496
1009.22093680969,0.284753811785216
1013.00102195397,0.285176216103393
1016.77680148412,0.284602722620072
1020.54827540013,0.284752859887377
1024.31544370202,0.284847610442812
1028.07830638977,0.284526748191281
1031.83686346339,0.2855275053568
1036.8415752729,0.285409876266913
1040.59008591354,0.285467400969509
1044.33429094005,0.285119512107279
1048.07419035243,0.284602421820458
1051.80978415068,0.285648770573909
1055.5410723348,0.283896233402234
1059.26805490478,0.283674677457702
1062.99073186063,0.284586516389958
1066.70910320235,0.28321449669259
1071.66023403599,0.282499526015663
1075.36855894474,0.281498578081853
1079.07257823935,0.28141863981796
1082.77229191983,0.280421154928629
1086.46769998618,0.280143754324721
1090.1588024384,0.279770444763271
1093.84559927648,0.278891410370784
1097.52809050043,0.278956936471241
1101.20627611025,0.278577185912038
1106.10382596803,0.277247224129441
1109.77196514487,0.276278409090909
1113.43579870759,0.27644089895195
1117.09532665617,0.275621948829319
1120.75054899062,0.275080283743772
1124.40146571093,0.274552828572823
1128.04807681712,0.274490292384271
1131.69038230917,0.273743248766691
1135.32838218709,0.274317892919275
1140.172351069,0.273797009417974
1143.80030451395,0.275417371596387
1147.42395234476,0.274123496933163
1151.04329456145,0.274025984897952
1154.658331164,0.274090126708281
1158.26906215241,0.274281981384208
1161.8754875267,0.274653016548598
1165.47760728685,0.275405443519955
1169.07542143287,0.274698016820932
1173.86580933892,0.274556415459393
1177.45357705197,0.274726492768053
1181.03703915088,0.274577085736255
1184.61619563566,0.275304674203744
1188.19104650631,0.276282030829175
1191.76159176283,0.276371581701866
1195.32783140522,0.277214385982251
1198.88976543347,0.27745864115821
1202.44739384759,0.278153604820093
1207.18420077777,0.278861213206311
1210.73178275892,0.279356831590065
1214.27505912594,0.27963963472158
1217.81402987882,0.279929553750623
1221.34869501757,0.279420050894307
1224.87905454219,0.280489285597086
1228.40510845267,0.280734477193028
1231.92685674903,0.280719967317905
1235.44429943125,0.28058913044511
1240.12752538557,0.281117829016983
1243.63492163481,0.281040405945707
1247.13801226993,0.281037437799304
1250.63679729091,0.280933133930122
1254.13127669776,0.280661458647524
1257.62145049048,0.279619492458275
1261.10731866907,0.279533037453677
1264.58888123353,0.279565597339709
1268.06613818385,0.280018261411249
1272.6957831623,0.279475811527111
1276.16299367965,0.279407449647338
1279.62589858286,0.279356208478871
1283.08449787195,0.27872761422918
1286.5387915469,0.278602751788366
1289.98877960772,0.278459321675948
1293.43446205441,0.278603028259149
1296.87583888696,0.278887070376432
1300.31291010539,0.278629523769493
1304.88897410797,0.278650252728144
1308.31599889342,0.278124580786578
1311.73871806474,0.278401963457867
1315.15713162192,0.278045985356039
1318.57123956497,0.278302124932847
1321.98104189389,0.278167543801815
1325.38653860868,0.277546902430801
1328.78772970934,0.278009365412563
1332.18461519586,0.277671210566182
1336.70709822258,0.277958122631627
1340.09393727613,0.278041131524803
1343.47647071555,0.277795946759692
1346.85469854083,0.277430629655269
1350.22862075199,0.277387100103334
1353.59823734901,0.277135352193472
1356.9635483319,0.277343590109236
1360.32455370065,0.277383144320796
1363.68125345528,0.276885519551166
1368.15015550613,0.27731698714897
1371.49680882778,0.276992713623316
1374.8391565353,0.276982848222283
1378.17719862868,0.276705192189826
1381.51093510794,0.277175996468196
1384.84036597306,0.2770033916898
1388.16549122405,0.276491864355553
1391.48631086091,0.276467104570083
1394.80282488363,0.275847146754706
1399.21814595862,0.276004432602396
1402.52461354837,0.275130211718621
1405.82677552399,0.274457288052745
1409.12463188548,0.274382825128476
1412.41818263283,0.273532665670053
1415.70742776605,0.274430581749601
1418.99236728514,0.273896122183237
1422.2730011901,0.27380734544504
1425.54932948093,0.274453810075082
1429.91106958005,0.274891957323506
1433.1773514379,0.275189929694413
1436.43932768162,0.276206997839168
1439.6969983112,0.27636760629104
1442.95036332666,0.276694604162275
1446.19942272798,0.27651181834181
1449.44417651517,0.277072483428575
1452.68462468823,0.277217809516869
1456.99852463033,0.277631181211366
1460.22892637041,0.278021275256867
1463.45502249637,0.277613825825738
1466.67681300819,0.277697292501507
1469.89429790587,0.277930831532918
1473.10747718943,0.278072063779563
1476.31635085885,0.278776353371964
1479.52091891415,0.279084267860943
1482.72118135531,0.278824761058348
1486.98150032154,0.2787866372279
1490.17171632972,0.279444719215011
1493.35762672377,0.279686984034343
1496.53923150369,0.280040630860592
1499.71653066948,0.279687694413338
1502.88952422114,0.279974065309689
1506.05821215866,0.280114090815153
1509.22259448206,0.280439619822626
1512.38267119132,0.280476314094244
1516.58940918168,0.28024642682723
1519.73943945797,0.280870189579118
1522.88516412012,0.28006965018114
1526.02658316814,0.280654137092206
1529.16369660203,0.28077559754522
1532.29650442179,0.280827365394224
1535.42500662741,0.280438851020724
1538.54920321891,0.280941595773136
1541.66909419627,0.281483303177754
1545.82225121076,0.281208351843625
1548.93209575515,0.280855390527928
1552.0376346854,0.28176527376545
1555.13886800153,0.281421536221765
1558.23579570352,0.281889582890037
1561.32841779137,0.2814752839509
1564.4167342651,0.28177961990585
1567.50074512469,0.28321220557674
1570.58045037016,0.282251044044434
1574.68002640879,0.282626512012916
1577.74968522127,0.283159831612969
1580.81503841963,0.282681891064989
1583.87608600385,0.282516513887346
1586.93282797394,0.283965818044428
1589.9852643299,0.283477060742328
1593.03339507173,0.282145624446125
1596.07722019942,0.283663719287608
1599.11673971298,0.283638319471061
1603.16273477575,0.284129305310861
1606.19220785634,0.284804811243934
1609.21737532279,0.284916872363489
1612.23823717512,0.284307851958042
1615.25479341331,0.284795722511653
1618.26704403737,0.284708150538057
1621.27498904729,0.285120608663074
1624.27862844309,0.285480636708329
1627.27796222475,0.285703003739107
1631.27037631165,0.2869196051487
1634.25966366034,0.286555907891239
1637.2446453949,0.287143052603126
1640.22532151532,0.285743746971015
1643.20169202161,0.284808578951658
1646.17375691377,0.283756772587494
1649.1415161918,0.281965945445999
1652.10496985569,0.28273094894699
1655.06411790546,0.281884845858914
1659.00295101649,0.284826174087305
1661.95205263328,0.290797744499908
1664.89684863594,0.29710080152558
1667.83733902446,0.309206159203439
1670.77352379886,0.324250963112634
1673.70540295912,0.340326616528776
1676.63297650524,0.35477715798277
1679.55624443724,0.367577026794423
1682.4752067551,0.381123748090307
1686.36045889027,0.378894572039842
1689.26937477516,0.375389537887246
1692.17398504592,0.375638575829661
1695.07428970255,0.377298726158193
1697.97028874504,0.373215230037017
1700.8619821734,0.368830930857562
##END=
