##TITLE=Column 1
##JCAMP-DX=4.24
##DATA TYPE=INFRARED SPECTRUM
##Method:,Column 1,Built-In Reference,,,Model Name,NIR-X-XX
##Host Date-Time:,27/10/20 @ 12:53:48,9/7/19 @ 16:39:9,,,GUI Version,2.4.4
##Header Version:,1,1,,,Tiva Version,2.1.0.67
##System Temp (C):,34.4,27.52,,,DLPC Version,2.0.0
##Detector Temp (C),0,0,,,UUID,DE:67:0C:88:67:19:47:21
##Humidity (%):,42.01,73.2,,,Main Board Version,D
##Lamp PD:,2442,2274
##Shift Vector Coefficients:,-6.85384978732833,0.0551332794684546,-0.000110731550088635
##Pixel to Wavelength Coefficients:,1790.66412099084,-0.917492857141292,-0.000239200785115314
##Serial Number:,925R021,925R021
##Scan Config Name:,Column 1,SystemTest
##Scan Config Type:,Column,Column
##Start wavelength (nm):,900,900
##End wavelength (nm):,1700,1700
##Pattern Pixel Width (nm):,7.03,7.03
##Exposure (ms):,0.635,0.635
##Digital Resolution:,228,228
##NPOINTS=228
##Num Repeats:,6,30
##PGA Gain:,64,64
##Total Measurement Time in sec:,1.8091549
##XUNITS=Wavelength(nm)
##YUNITS=Reflectance(AU)
##FIRSTX=901.630473432251
##LASTX=1700.8619821734
##PEAK TABLE=X+(Y..Y)
901.630473432251,0.22798170976491
905.531115772228,0.228364127985579
909.427452498074,0.231683234595174
913.319483609787,0.23030933394969
917.207209107368,0.226771719542349
921.090628990817,0.227268186699298
924.969743260134,0.224599729004784
930.13519799724,0.224774607879462
934.004265833582,0.228105159115531
937.869028055792,0.229419670714731
941.72948466387,0.233005250578693
945.585635657816,0.23424933816233
949.43748103763,0.233845879145406
953.285020803312,0.234127718037465
957.128254954862,0.236053223973076
960.967183492279,0.235663972304126
966.07905725352,0.234985086568499
969.907939357962,0.234593719816398
973.732515848273,0.234923611860286
977.552786724452,0.234776969279456
981.368751986498,0.235375257813218
985.180411634413,0.234150829919244
988.987765668195,0.235387424282926
992.790814087846,0.234739989825419
996.589556893364,0.234648069552944
1001.64784967874,0.235631074986132
1005.43654605128,0.234679759089212
1009.22093680969,0.234458728880971
1013.00102195397,0.235222822825672
1016.77680148412,0.235388857880746
1020.54827540013,0.234700990828983
1024.31544370202,0.235431577254386
1028.07830638977,0.235645145242371
1031.83686346339,0.235658844829591
1036.8415752729,0.235685698436016
1040.59008591354,0.236148160896461
1044.33429094005,0.236034911221292
1048.07419035243,0.235041767977082
1051.80978415068,0.235612444152653
1055.5410723348,0.234999685350399
1059.26805490478,0.236085435498819
1062.99073186063,0.234273777281174
1066.70910320235,0.234474861978515
1071.66023403599,0.233929500298975
1075.36855894474,0.233788557256147
1079.07257823935,0.23310159575239
1082.77229191983,0.234158580177718
1086.46769998618,0.233251208527572
1090.1588024384,0.231454691916472
1093.84559927648,0.232302628309642
1097.52809050043,0.230935845666484
1101.20627611025,0.231100987091875
1106.10382596803,0.231302896429917
1109.77196514487,0.230232771260997
1113.43579870759,0.230216742457626
1117.09532665617,0.22980848729519
1120.75054899062,0.228687908686746
1124.40146571093,0.228258216816574
1128.04807681712,0.227518597365658
1131.69038230917,0.227599894209731
1135.32838218709,0.228037865674038
1140.172351069,0.228245339283033
1143.80030451395,0.227571530415722
1147.42395234476,0.22820856602937
1151.04329456145,0.22875751335242
1154.658331164,0.228651417432239
1158.26906215241,0.228106107138382
1161.8754875267,0.228286831515171
1165.47760728685,0.228553296935754
1169.07542143287,0.228763474092655
1173.86580933892,0.228217954162931
1177.45357705197,0.228165119417555
1181.03703915088,0.228335255670896
1184.61619563566,0.229160968271335
1188.19104650631,0.228912157685616
1191.76159176283,0.229497624148437
1195.32783140522,0.229790645194942
1198.88976543347,0.23038513700201
1202.44739384759,0.230439316559266
1207.18420077777,0.231080659684873
1210.73178275892,0.231126115147335
1214.27505912594,0.231055830687686
1217.81402987882,0.231480920246225
1221.34869501757,0.231485990768551
1224.87905454219,0.231642765727037
1228.40510845267,0.231900591808029
1231.92685674903,0.232031656773925
1235.44429943125,0.231820074836858
1240.12752538557,0.231971682830219
1243.63492163481,0.232018009047815
1247.13801226993,0.232157625732484
1250.63679729091,0.2324062708452
1254.13127669776,0.231928274114737
1257.62145049048,0.23217653883914
1261.10731866907,0.231672305957141
1264.58888123353,0.231536733298916
1268.06613818385,0.231789077855621
1272.6957831623,0.231524034628886
1276.16299367965,0.231724668652353
1279.62589858286,0.23163892884049
1283.08449787195,0.231297465434036
1286.5387915469,0.231448856024569
1289.98877960772,0.231378435529274
1293.43446205441,0.231183580908478
1296.87583888696,0.231086003906869
1300.31291010539,0.231227144718591
1304.88897410797,0.23096047146308
1308.31599889342,0.231077601532677
1311.73871806474,0.231067305569624
1315.15713162192,0.230602196594138
1318.57123956497,0.230857157651506
1321.98104189389,0.230773805137672
1325.38653860868,0.231067539758716
1328.78772970934,0.230492491522687
1332.18461519586,0.230672485064074
1336.70709822258,0.23069799924988
1340.09393727613,0.230100103197838
1343.47647071555,0.230899208870616
1346.85469854083,0.230177856663249
1350.22862075199,0.229784226608437
1353.59823734901,0.2301377163838
1356.9635483319,0.230151593774633
1360.32455370065,0.22941294382989
1363.68125345528,0.229302216438765
1368.15015550613,0.229357958103739
1371.49680882778,0.229153315489878
1374.8391565353,0.229493956833947
1378.17719862868,0.229489536818142
1381.51093510794,0.229459282540131
1384.84036597306,0.229939498074684
1388.16549122405,0.229600159309208
1391.48631086091,0.228955438060014
1394.80282488363,0.228993282435748
1399.21814595862,0.228225705347223
1402.52461354837,0.2277470122802
1405.82677552399,0.227618690896785
1409.12463188548,0.226648455107444
1412.41818263283,0.226742103820818
1415.70742776605,0.226567532279124
1418.99236728514,0.226852208045965
1422.2730011901,0.22654409735837
1425.54932948093,0.226778666891326
1429.91106958005,0.226846025744237
1433.1773514379,0.227303964514493
1436.43932768162,0.22716075951944
1439.6969983112,0.227457809940122
1442.95036332666,0.22801939390415
1446.19942272798,0.229271904039515
1449.44417651517,0.228496447004917
1452.68462468823,0.228184799242148
1456.99852463033,0.228419517024753
1460.22892637041,0.228869256244064
1463.45502249637,0.229263097590176
1466.67681300819,0.229231728327559
1469.89429790587,0.229440148587839
1473.10747718943,0.229107590896269
1476.31635085885,0.229242827631981
1479.52091891415,0.229349712672104
1482.72118135531,0.229524074924872
1486.98150032154,0.22983937662653
1490.17171632972,0.230302003382731
1493.35762672377,0.230240291206217
1496.53923150369,0.230056014310474
1499.71653066948,0.230732860520095
1502.88952422114,0.230364573463612
1506.05821215866,0.230792530459187
1509.22259448206,0.230151943799867
1512.38267119132,0.230601465926973
1516.58940918168,0.230518116136025
1519.73943945797,0.230751365293495
1522.88516412012,0.231331028165411
1526.02658316814,0.230817421440235
1529.16369660203,0.23093305878553
1532.29650442179,0.230446856167852
1535.42500662741,0.230522122830211
1538.54920321891,0.230983801884859
1541.66909419627,0.23100637658756
1545.82225121076,0.230994167696999
1548.93209575515,0.231358540179732
1552.0376346854,0.230923249683543
1555.13886800153,0.230929071745315
1558.23579570352,0.231635279695853
1561.32841779137,0.231271465847574
1564.4167342651,0.231461969240083
1567.50074512469,0.231053003087673
1570.58045037016,0.231803940289885
1574.68002640879,0.231358259508556
1577.74968522127,0.23202619167736
1580.81503841963,0.231611265428474
1583.87608600385,0.231623468123243
1586.93282797394,0.231166031403838
1589.9852643299,0.230661494144593
1593.03339507173,0.231121854802415
1596.07722019942,0.231160420954894
1599.11673971298,0.231117550290611
1603.16273477575,0.231367567864326
1606.19220785634,0.231079083801107
1609.21737532279,0.230845381290078
1612.23823717512,0.23006520564652
1615.25479341331,0.229298053194406
1618.26704403737,0.230281296284326
1621.27498904729,0.231721375255771
1624.27862844309,0.231333218973482
1627.27796222475,0.23002949368665
1631.27037631165,0.228766657001299
1634.25966366034,0.228598849613187
1637.2446453949,0.228573144807932
1640.22532151532,0.226109253142411
1643.20169202161,0.224860815298091
1646.17375691377,0.222236052130619
1649.1415161918,0.220979333767986
1652.10496985569,0.219043389753243
1655.06411790546,0.218176467222027
1659.00295101649,0.21737823473033
1661.95205263328,0.222642817526345
1664.89684863594,0.228027571685389
1667.83733902446,0.237657108656619
1670.77352379886,0.24981285489103
1673.70540295912,0.265349791944017
1676.63297650524,0.276764182885538
1679.55624443724,0.28759538699868
1682.4752067551,0.297334917671024
1686.36045889027,0.302469573102481
1689.26937477516,0.303547919409402
1692.17398504592,0.303006668486527
1695.07428970255,0.305448579176446
1697.97028874504,0.302802749867795
1700.8619821734,0.291351087222086
##END=
