##TITLE=Column 1
##JCAMP-DX=4.24
##DATA TYPE=INFRARED SPECTRUM
##Method:,Column 1,Built-In Reference,,,Model Name,NIR-X-XX
##Host Date-Time:,27/10/20 @ 12:52:54,9/7/19 @ 16:39:9,,,GUI Version,2.4.4
##Header Version:,1,1,,,Tiva Version,2.1.0.67
##System Temp (C):,33.06,27.52,,,DLPC Version,2.0.0
##Detector Temp (C),0,0,,,UUID,DE:67:0C:88:67:19:47:21
##Humidity (%):,43.23,73.2,,,Main Board Version,D
##Lamp PD:,2419,2274
##Shift Vector Coefficients:,-6.85384978732833,0.0551332794684546,-0.000110731550088635
##Pixel to Wavelength Coefficients:,1790.66412099084,-0.917492857141292,-0.000239200785115314
##Serial Number:,925R021,925R021
##Scan Config Name:,Column 1,SystemTest
##Scan Config Type:,Column,Column
##Start wavelength (nm):,900,900
##End wavelength (nm):,1700,1700
##Pattern Pixel Width (nm):,7.03,7.03
##Exposure (ms):,0.635,0.635
##Digital Resolution:,228,228
##NPOINTS=228
##Num Repeats:,6,30
##PGA Gain:,64,64
##Total Measurement Time in sec:,1.7971722
##XUNITS=Wavelength(nm)
##YUNITS=Reflectance(AU)
##FIRSTX=901.630473432251
##LASTX=1700.8619821734
##PEAK TABLE=X+(Y..Y)
901.630473432251,0.173443910272102
905.531115772228,0.17591707976566
909.427452498074,0.176440070957593
913.319483609787,0.176817288801572
917.207209107368,0.177584063255242
921.090628990817,0.175817246460055
924.969743260134,0.175206702983713
930.13519799724,0.177069379922288
934.004265833582,0.177342708050085
937.869028055792,0.180682890926255
941.72948466387,0.180808099817453
945.585635657816,0.181757282005538
949.43748103763,0.183026240788941
953.285020803312,0.183069565906629
957.128254954862,0.183083971993415
960.967183492279,0.185360664356627
966.07905725352,0.18461769256564
969.907939357962,0.185690230413959
973.732515848273,0.184590148516358
977.552786724452,0.185152095756819
981.368751986498,0.185507284455012
985.180411634413,0.184453343065844
988.987765668195,0.183632502988334
992.790814087846,0.184571861079746
996.589556893364,0.184497613283279
1001.64784967874,0.1849786546393
1005.43654605128,0.184553845859226
1009.22093680969,0.184377991912013
1013.00102195397,0.183317402452012
1016.77680148412,0.184167084488255
1020.54827540013,0.18342978536371
1024.31544370202,0.183631426827941
1028.07830638977,0.183243232998991
1031.83686346339,0.18243491755393
1036.8415752729,0.182290240633117
1040.59008591354,0.182241918366176
1044.33429094005,0.181511939205494
1048.07419035243,0.181386167216351
1051.80978415068,0.180492832471235
1055.5410723348,0.179621355510483
1059.26805490478,0.179350014798857
1062.99073186063,0.179032512722105
1066.70910320235,0.178118823675273
1071.66023403599,0.177457304949369
1075.36855894474,0.176759093366564
1079.07257823935,0.175694608840169
1082.77229191983,0.175060257773373
1086.46769998618,0.174894710252671
1090.1588024384,0.174645013989714
1093.84559927648,0.17427252355114
1097.52809050043,0.174615306825585
1101.20627611025,0.174162724139945
1106.10382596803,0.173552305192028
1109.77196514487,0.172076612903226
1113.43579870759,0.172807930111801
1117.09532665617,0.17186130704436
1120.75054899062,0.171766957984095
1124.40146571093,0.171531453978284
1128.04807681712,0.171492038192021
1131.69038230917,0.171290619419509
1135.32838218709,0.17175128742424
1140.172351069,0.172110784545084
1143.80030451395,0.172766835849799
1147.42395234476,0.172559990709754
1151.04329456145,0.17321311969461
1154.658331164,0.172499533398312
1158.26906215241,0.172045087111307
1161.8754875267,0.172189647665822
1165.47760728685,0.172331123959949
1169.07542143287,0.172592010655649
1173.86580933892,0.172296021896088
1177.45357705197,0.172462206803748
1181.03703915088,0.17223567858516
1184.61619563566,0.172101036348164
1188.19104650631,0.172561546676376
1191.76159176283,0.173170297778338
1195.32783140522,0.173291019467673
1198.88976543347,0.173753185095828
1202.44739384759,0.174074173106233
1207.18420077777,0.174248184184801
1210.73178275892,0.174752079044305
1214.27505912594,0.174126509980672
1217.81402987882,0.175223259384976
1221.34869501757,0.174601380562098
1224.87905454219,0.175178026449644
1228.40510845267,0.174672496159406
1231.92685674903,0.1753586619566
1235.44429943125,0.174914925725289
1240.12752538557,0.174399368232455
1243.63492163481,0.175781479500175
1247.13801226993,0.175441638369793
1250.63679729091,0.175395125992574
1254.13127669776,0.175502201845931
1257.62145049048,0.174878767143665
1261.10731866907,0.175544521099735
1264.58888123353,0.174773382093797
1268.06613818385,0.174946879773354
1272.6957831623,0.174769583642187
1276.16299367965,0.174915294586604
1279.62589858286,0.174798986370797
1283.08449787195,0.174938793679056
1286.5387915469,0.174555045865383
1289.98877960772,0.174743162357747
1293.43446205441,0.174585619221108
1296.87583888696,0.174534079510058
1300.31291010539,0.174668204362994
1304.88897410797,0.1739624036674
1308.31599889342,0.174245611201773
1311.73871806474,0.17426597582038
1315.15713162192,0.174291136877476
1318.57123956497,0.17413446041722
1321.98104189389,0.174046365997407
1325.38653860868,0.173588405737191
1328.78772970934,0.173816890037139
1332.18461519586,0.174023251184663
1336.70709822258,0.173668214327285
1340.09393727613,0.173418981928077
1343.47647071555,0.17343461242966
1346.85469854083,0.173015963897752
1350.22862075199,0.173317622037966
1353.59823734901,0.17270141234446
1356.9635483319,0.173149112765117
1360.32455370065,0.172577761080896
1363.68125345528,0.172264650041598
1368.15015550613,0.172706413713844
1371.49680882778,0.172585613579695
1374.8391565353,0.172614070772596
1378.17719862868,0.172256698187549
1381.51093510794,0.17222247594374
1384.84036597306,0.172286368317364
1388.16549122405,0.172387251308864
1391.48631086091,0.17195823688354
1394.80282488363,0.171534321480157
1399.21814595862,0.171322388244669
1402.52461354837,0.171093720660837
1405.82677552399,0.170730649142927
1409.12463188548,0.170424852694944
1412.41818263283,0.170330984863753
1415.70742776605,0.169796895401132
1418.99236728514,0.170015402102293
1422.2730011901,0.169466591150031
1425.54932948093,0.170227074984276
1429.91106958005,0.170147961066854
1433.1773514379,0.170648325320618
1436.43932768162,0.170436732402886
1439.6969983112,0.170436357662971
1442.95036332666,0.170882975088864
1446.19942272798,0.171203418599544
1449.44417651517,0.170865440318125
1452.68462468823,0.170738176783502
1456.99852463033,0.171147069861579
1460.22892637041,0.171409379669237
1463.45502249637,0.171556580561289
1466.67681300819,0.171068629950643
1469.89429790587,0.171701174003635
1473.10747718943,0.1715144676871
1476.31635085885,0.17156707012402
1479.52091891415,0.171220146826503
1482.72118135531,0.171575546233044
1486.98150032154,0.171659876023339
1490.17171632972,0.171951420563829
1493.35762672377,0.172392237572667
1496.53923150369,0.171850915044705
1499.71653066948,0.172411969640413
1502.88952422114,0.17208825938449
1506.05821215866,0.172474013261164
1509.22259448206,0.172252773451159
1512.38267119132,0.172275263523929
1516.58940918168,0.172735665529287
1519.73943945797,0.173112182228859
1522.88516412012,0.173618756034561
1526.02658316814,0.173892832150355
1529.16369660203,0.173175401055125
1532.29650442179,0.173759648687507
1535.42500662741,0.173651769311334
1538.54920321891,0.174403295897844
1541.66909419627,0.174690392959404
1545.82225121076,0.174432068567473
1548.93209575515,0.175641849914757
1552.0376346854,0.175118660088993
1555.13886800153,0.175268701394202
1558.23579570352,0.175455081262157
1561.32841779137,0.176330357245189
1564.4167342651,0.176875342003237
1567.50074512469,0.177196171758239
1570.58045037016,0.17692190427286
1574.68002640879,0.177288328461891
1577.74968522127,0.178254962749289
1580.81503841963,0.17850806305258
1583.87608600385,0.179288655999338
1586.93282797394,0.178890753314294
1589.9852643299,0.179811728065775
1593.03339507173,0.180740696061282
1596.07722019942,0.179862760935424
1599.11673971298,0.182136445459854
1603.16273477575,0.181530522102384
1606.19220785634,0.182690957730588
1609.21737532279,0.182520341130222
1612.23823717512,0.182966295260154
1615.25479341331,0.182955854126679
1618.26704403737,0.183184052476413
1621.27498904729,0.183339577509438
1624.27862844309,0.184304701964426
1627.27796222475,0.184312760651595
1631.27037631165,0.183529582330026
1634.25966366034,0.183523659449189
1637.2446453949,0.182053600926386
1640.22532151532,0.182364688130502
1643.20169202161,0.179992132653387
1646.17375691377,0.179107482793967
1649.1415161918,0.176383181962913
1652.10496985569,0.174403936163106
1655.06411790546,0.172154868667381
1659.00295101649,0.173764921146641
1661.95205263328,0.175286559437974
1664.89684863594,0.178555466166086
1667.83733902446,0.186658686544426
1670.77352379886,0.193888418912915
1673.70540295912,0.205233113312098
1676.63297650524,0.212822449029304
1679.55624443724,0.218419492416853
1682.4752067551,0.220924574209246
1686.36045889027,0.225506170390626
1689.26937477516,0.222124085523356
1692.17398504592,0.220411028350817
1695.07428970255,0.217100015951507
1697.97028874504,0.217477525118985
1700.8619821734,0.223796726117762
##END=
