##TITLE=Column 1
##JCAMP-DX=4.24
##DATA TYPE=INFRARED SPECTRUM
##Method:,Column 1,Built-In Reference,,,Model Name,NIR-X-XX
##Host Date-Time:,27/10/20 @ 14:35:55,9/7/19 @ 16:39:9,,,GUI Version,2.4.4
##Header Version:,1,1,,,Tiva Version,2.1.0.67
##System Temp (C):,53.96,27.52,,,DLPC Version,2.0.0
##Detector Temp (C),0,0,,,UUID,00:00:00:00:00:00:00:00
##Humidity (%):,13.86,73.2,,,Main Board Version,D
##Lamp PD:,2724,2274
##Shift Vector Coefficients:,-6.85384978732833,0.0551332794684546,-0.000110731550088635
##Pixel to Wavelength Coefficients:,1790.66412099084,-0.917492857141292,-0.000239200785115314
##Serial Number:,925R021,925R021
##Scan Config Name:,Column 1,SystemTest
##Scan Config Type:,Column,Column
##Start wavelength (nm):,900,900
##End wavelength (nm):,1700,1700
##Pattern Pixel Width (nm):,7.03,7.03
##Exposure (ms):,0.635,0.635
##Digital Resolution:,228,228
##NPOINTS=228
##Num Repeats:,6,30
##PGA Gain:,64,64
##Total Measurement Time in sec:,1.8291247
##XUNITS=Wavelength(nm)
##YUNITS=Reflectance(AU)
##FIRSTX=901.630473432251
##LASTX=1700.8619821734
##PEAK TABLE=X+(Y..Y)
901.630473432251,0.333738042318199
905.531115772228,0.333672825597116
909.427452498074,0.331333467215584
913.319483609787,0.327932508956431
917.207209107368,0.318525348197198
921.090628990817,0.312670129610669
924.969743260134,0.304311036141913
930.13519799724,0.300277405686817
934.004265833582,0.302304402059675
937.869028055792,0.307492919886718
941.72948466387,0.313642094962079
945.585635657816,0.315629399563671
949.43748103763,0.317622739727909
953.285020803312,0.320510449417422
957.128254954862,0.31863380339989
960.967183492279,0.318693177800256
966.07905725352,0.317409004535801
969.907939357962,0.317359826997211
973.732515848273,0.316943699880224
977.552786724452,0.31379302921358
981.368751986498,0.31369530090251
985.180411634413,0.313197489423606
988.987765668195,0.312960543902033
992.790814087846,0.312106510490986
996.589556893364,0.312027680032934
1001.64784967874,0.310544849376522
1005.43654605128,0.31085247565518
1009.22093680969,0.310775408329007
1013.00102195397,0.311494190169658
1016.77680148412,0.309459165428969
1020.54827540013,0.309196301346232
1024.31544370202,0.309386515546431
1028.07830638977,0.309588223309849
1031.83686346339,0.309144881557185
1036.8415752729,0.30872798005795
1040.59008591354,0.308780082035396
1044.33429094005,0.308404864520931
1048.07419035243,0.307915452947832
1051.80978415068,0.307536344524124
1055.5410723348,0.306964889945251
1059.26805490478,0.307100540036973
1062.99073186063,0.306666504730559
1066.70910320235,0.306955893900313
1071.66023403599,0.30668974200668
1075.36855894474,0.306198496379139
1079.07257823935,0.306900916482678
1082.77229191983,0.307920830186138
1086.46769998618,0.308540261506451
1090.1588024384,0.30889145221333
1093.84559927648,0.309299062213819
1097.52809050043,0.309988734951518
1101.20627611025,0.310582325798727
1106.10382596803,0.311396847193614
1109.77196514487,0.312949046920821
1113.43579870759,0.313463381836519
1117.09532665617,0.314690450497537
1120.75054899062,0.315503931443497
1124.40146571093,0.316090627925861
1128.04807681712,0.317380363735632
1131.69038230917,0.317147859386373
1135.32838218709,0.319389671972547
1140.172351069,0.320296912878382
1143.80030451395,0.321439439886786
1147.42395234476,0.321664220938948
1151.04329456145,0.321385219415005
1154.658331164,0.322108624872981
1158.26906215241,0.321988286554189
1161.8754875267,0.321896069758831
1165.47760728685,0.32228176561839
1169.07542143287,0.321854848679409
1173.86580933892,0.322408884274771
1177.45357705197,0.321398708011341
1181.03703915088,0.321328335255671
1184.61619563566,0.321879558716266
1188.19104650631,0.321745022118703
1191.76159176283,0.321705498187533
1195.32783140522,0.321501190535018
1198.88976543347,0.321801676204648
1202.44739384759,0.322459602306657
1207.18420077777,0.321736525477473
1210.73178275892,0.321969677326792
1214.27505912594,0.320961201536039
1217.81402987882,0.321203916973101
1221.34869501757,0.320205305839548
1224.87905454219,0.320122731598464
1228.40510845267,0.31931705483137
1231.92685674903,0.319217552207243
1235.44429943125,0.3184905313797
1240.12752538557,0.317489722852568
1243.63492163481,0.317361538437752
1247.13801226993,0.316400729760127
1250.63679729091,0.316371876837043
1254.13127669776,0.315943777523074
1257.62145049048,0.316166364204326
1261.10731866907,0.315354982349753
1264.58888123353,0.315125068857811
1268.06613818385,0.31515867801036
1272.6957831623,0.313728479321968
1276.16299367965,0.313134598562776
1279.62589858286,0.312386822820355
1283.08449787195,0.312955654595495
1286.5387915469,0.311643600456163
1289.98877960772,0.312227155952511
1293.43446205441,0.311566282336571
1296.87583888696,0.311690248666913
1300.31291010539,0.311392701021395
1304.88897410797,0.311155442506143
1308.31599889342,0.311069057718932
1311.73871806474,0.311157427246874
1315.15713162192,0.310723953039763
1318.57123956497,0.3110647965359
1321.98104189389,0.310882034694994
1325.38653860868,0.310361487494623
1328.78772970934,0.310655255934119
1332.18461519586,0.310448814561849
1336.70709822258,0.310413729775869
1340.09393727613,0.310136047639333
1343.47647071555,0.310106885525032
1346.85469854083,0.309616075285888
1350.22862075199,0.309160669332536
1353.59823734901,0.309261298821318
1356.9635483319,0.308721296409996
1360.32455370065,0.308378722449592
1363.68125345528,0.308522836358982
1368.15015550613,0.308678166391533
1371.49680882778,0.308103872604193
1374.8391565353,0.308145231122813
1378.17719862868,0.307592647316347
1381.51093510794,0.30695275382416
1384.84036597306,0.307793050953703
1388.16549122405,0.307215379552776
1391.48631086091,0.306869787796218
1394.80282488363,0.30668661301786
1399.21814595862,0.305459046702279
1402.52461354837,0.304507650931487
1405.82677552399,0.303046649148711
1409.12463188548,0.303216667342599
1412.41818263283,0.301952095860478
1415.70742776605,0.302627303061076
1418.99236728514,0.302186053331049
1422.2730011901,0.302303257381025
1425.54932948093,0.302158033033578
1429.91106958005,0.302762172420708
1433.1773514379,0.303036114610167
1436.43932768162,0.303969184147693
1439.6969983112,0.303720458962726
1442.95036332666,0.304123748809688
1446.19942272798,0.304069768287486
1449.44417651517,0.304640581288044
1452.68462468823,0.304203162573781
1456.99852463033,0.304259510482669
1460.22892637041,0.304153636096229
1463.45502249637,0.304560377815807
1466.67681300819,0.304123810099289
1469.89429790587,0.304312271066334
1473.10747718943,0.304796828837389
1476.31635085885,0.304491725768322
1479.52091891415,0.30529150966303
1482.72118135531,0.305012314250638
1486.98150032154,0.305364987594747
1490.17171632972,0.30522125136622
1493.35762672377,0.30547009991015
1496.53923150369,0.30525866613894
1499.71653066948,0.305592882916511
1502.88952422114,0.305352788527345
1506.05821215866,0.305631498656688
1509.22259448206,0.304909564830414
1512.38267119132,0.305697372933232
1516.58940918168,0.306381818801322
1519.73943945797,0.306496327323698
1522.88516412012,0.307008755786989
1526.02658316814,0.306841280949049
1529.16369660203,0.307000632536606
1532.29650442179,0.307048342855977
1535.42500662741,0.307029170887489
1538.54920321891,0.307880558440701
1541.66909419627,0.308347532805172
1545.82225121076,0.308715983436188
1548.93209575515,0.309130017048574
1552.0376346854,0.309049308739721
1555.13886800153,0.309543263338508
1558.23579570352,0.30980361880695
1561.32841779137,0.310491188257632
1564.4167342651,0.311097786729692
1567.50074512469,0.31148630263931
1570.58045037016,0.311977727052084
1574.68002640879,0.312754826425333
1577.74968522127,0.312694548354752
1580.81503841963,0.313317861268097
1583.87608600385,0.313647342206077
1586.93282797394,0.314102834790919
1589.9852643299,0.315268095693172
1593.03339507173,0.31485150352392
1596.07722019942,0.314624226934765
1599.11673971298,0.315444420485959
1603.16273477575,0.315829269875177
1606.19220785634,0.317246502224639
1609.21737532279,0.315921587065261
1612.23823717512,0.316883929669906
1615.25479341331,0.316797367699479
1618.26704403737,0.317775710547838
1621.27498904729,0.317565347704545
1624.27862844309,0.31678960350651
1627.27796222475,0.316703267997679
1631.27037631165,0.318143997176032
1634.25966366034,0.316528218197381
1637.2446453949,0.315598730557067
1640.22532151532,0.315756911242563
1643.20169202161,0.314651338334887
1646.17375691377,0.311868501976863
1649.1415161918,0.312806089184722
1652.10496985569,0.312224663111439
1655.06411790546,0.312345184470623
1659.00295101649,0.318985797682321
1661.95205263328,0.324334442595674
1664.89684863594,0.339526037166155
1667.83733902446,0.357788780673595
1670.77352379886,0.387740321707007
1673.70540295912,0.426413700329683
1676.63297650524,0.470034670629024
1679.55624443724,0.527626369843365
1682.4752067551,0.583749221977027
1686.36045889027,0.665127020785219
1689.26937477516,0.719432732847834
1692.17398504592,0.760187965526654
1695.07428970255,0.7931317366634
1697.97028874504,0.798625066102591
1700.8619821734,0.802070608355729
##END=
