##TITLE=Column 1
##JCAMP-DX=4.24
##DATA TYPE=INFRARED SPECTRUM
##Method:,Column 1,Built-In Reference,,,Model Name,NIR-X-XX
##Host Date-Time:,27/10/20 @ 14:36:33,9/7/19 @ 16:39:9,,,GUI Version,2.4.4
##Header Version:,1,1,,,Tiva Version,2.1.0.67
##System Temp (C):,54.01,27.52,,,DLPC Version,2.0.0
##Detector Temp (C),0,0,,,UUID,00:00:00:00:00:00:00:00
##Humidity (%):,13.86,73.2,,,Main Board Version,D
##Lamp PD:,2725,2274
##Shift Vector Coefficients:,-6.85384978732833,0.0551332794684546,-0.000110731550088635
##Pixel to Wavelength Coefficients:,1790.66412099084,-0.917492857141292,-0.000239200785115314
##Serial Number:,925R021,925R021
##Scan Config Name:,Column 1,SystemTest
##Scan Config Type:,Column,Column
##Start wavelength (nm):,900,900
##End wavelength (nm):,1700,1700
##Pattern Pixel Width (nm):,7.03,7.03
##Exposure (ms):,0.635,0.635
##Digital Resolution:,228,228
##NPOINTS=228
##Num Repeats:,6,30
##PGA Gain:,64,64
##Total Measurement Time in sec:,1.8261246
##XUNITS=Wavelength(nm)
##YUNITS=Absorbance(AU)
##FIRSTX=901.630473432251
##LASTX=1700.8619821734
##PEAK TABLE=X+(Y..Y)
901.630473432251,0.506580262597616
905.531115772228,0.507081682158884
909.427452498074,0.505222664805524
913.319483609787,0.51672684093711
917.207209107368,0.521342468547662
921.090628990817,0.530801047627072
924.969743260134,0.544029616098809
930.13519799724,0.545972181274868
934.004265833582,0.541570921299978
937.869028055792,0.536004557811012
941.72948466387,0.526421212360911
945.585635657816,0.522791111211058
949.43748103763,0.514752312600073
953.285020803312,0.512078110825476
957.128254954862,0.509037226273597
960.967183492279,0.507943528051679
966.07905725352,0.508367317822439
969.907939357962,0.507629093075855
973.732515848273,0.509087257238646
977.552786724452,0.509300364375442
981.368751986498,0.508261366702707
985.180411634413,0.509636638565787
988.987765668195,0.510607134634553
992.790814087846,0.509571559682914
996.589556893364,0.510270361314926
1001.64784967874,0.509988946508714
1005.43654605128,0.509914135036865
1009.22093680969,0.509310871054061
1013.00102195397,0.509496544432729
1016.77680148412,0.50939001193114
1020.54827540013,0.510008073700419
1024.31544370202,0.509292821844725
1028.07830638977,0.508946469004899
1031.83686346339,0.509498056097773
1036.8415752729,0.509885121382659
1040.59008591354,0.50888403651478
1044.33429094005,0.50803778823444
1048.07419035243,0.508186274017738
1051.80978415068,0.50812695333764
1055.5410723348,0.510262088507108
1059.26805490478,0.509070640082846
1062.99073186063,0.50912298869347
1066.70910320235,0.511296743073219
1071.66023403599,0.510022574223122
1075.36855894474,0.510670787884859
1079.07257823935,0.510663153400208
1082.77229191983,0.511096374168389
1086.46769998618,0.51042873059729
1090.1588024384,0.510965479300169
1093.84559927648,0.510889177581463
1097.52809050043,0.51178889479713
1101.20627611025,0.512411298417421
1106.10382596803,0.51216909111934
1109.77196514487,0.512866032331125
1113.43579870759,0.512590256637987
1117.09532665617,0.512760639036929
1120.75054899062,0.513220358340621
1124.40146571093,0.514221683540573
1128.04807681712,0.514762165283985
1131.69038230917,0.513252211425931
1135.32838218709,0.512117765269196
1140.172351069,0.511464529807924
1143.80030451395,0.511598564297512
1147.42395234476,0.511212422452317
1151.04329456145,0.511553549830265
1154.658331164,0.50899318450821
1158.26906215241,0.512181667214431
1161.8754875267,0.511411348987097
1165.47760728685,0.510628977665105
1169.07542143287,0.512495159398415
1173.86580933892,0.512020438168421
1177.45357705197,0.512324216471318
1181.03703915088,0.512131803054323
1184.61619563566,0.513228423247877
1188.19104650631,0.511336972104495
1191.76159176283,0.511466447028986
1195.32783140522,0.511893495294744
1198.88976543347,0.510946180865922
1202.44739384759,0.510583936925121
1207.18420077777,0.510629805188539
1210.73178275892,0.509451311588211
1214.27505912594,0.508788253813522
1217.81402987882,0.50927961482034
1221.34869501757,0.509816031823737
1224.87905454219,0.509887361209421
1228.40510845267,0.50979886085288
1231.92685674903,0.510021830130904
1235.44429943125,0.510094188208119
1240.12752538557,0.509480949846751
1243.63492163481,0.51102021106613
1247.13801226993,0.51003243934219
1250.63679729091,0.509715081388728
1254.13127669776,0.510367472270721
1257.62145049048,0.509939799766542
1261.10731866907,0.509805638937659
1264.58888123353,0.510537394785637
1268.06613818385,0.511261970591629
1272.6957831623,0.511425777107186
1276.16299367965,0.510880238719379
1279.62589858286,0.511650972553473
1283.08449787195,0.512425202509412
1286.5387915469,0.512340281244625
1289.98877960772,0.513322044665677
1293.43446205441,0.512609644944609
1296.87583888696,0.512920406901327
1300.31291010539,0.514268268160236
1304.88897410797,0.513624143321478
1308.31599889342,0.513571081474484
1311.73871806474,0.514213003419566
1315.15713162192,0.514159098788451
1318.57123956497,0.513847897930085
1321.98104189389,0.514508981556784
1325.38653860868,0.514979031384153
1328.78772970934,0.514651367360259
1332.18461519586,0.515167814633227
1336.70709822258,0.515344976003507
1340.09393727613,0.515584786289689
1343.47647071555,0.516530529603645
1346.85469854083,0.51703001269099
1350.22862075199,0.517484173344256
1353.59823734901,0.517657521546236
1356.9635483319,0.518737121679038
1360.32455370065,0.519397666296335
1363.68125345528,0.519312293392501
1368.15015550613,0.518976203072175
1371.49680882778,0.518883748919736
1374.8391565353,0.520377485204787
1378.17719862868,0.520648870184298
1381.51093510794,0.520810306459926
1384.84036597306,0.52096354733287
1388.16549122405,0.521415485010956
1391.48631086091,0.522403763611146
1394.80282488363,0.522322339591598
1399.21814595862,0.523803245870188
1402.52461354837,0.524943668235042
1405.82677552399,0.525468423070493
1409.12463188548,0.5263696738588
1412.41818263283,0.526664457659016
1415.70742776605,0.527407140306627
1418.99236728514,0.527707610478406
1422.2730011901,0.527025365923838
1425.54932948093,0.526782774299963
1429.91106958005,0.525868226926375
1433.1773514379,0.525290108335376
1436.43932768162,0.523924958177642
1439.6969983112,0.523950600021317
1442.95036332666,0.524022001880504
1446.19942272798,0.522535462659776
1449.44417651517,0.522375013711605
1452.68462468823,0.521454848388955
1456.99852463033,0.522475373572002
1460.22892637041,0.522063244465877
1463.45502249637,0.522072474725917
1466.67681300819,0.521900345190585
1469.89429790587,0.521657878491131
1473.10747718943,0.521792600668804
1476.31635085885,0.521823099565744
1479.52091891415,0.520996410511491
1482.72118135531,0.519701216989562
1486.98150032154,0.520160005873511
1490.17171632972,0.520530740796056
1493.35762672377,0.520124871067831
1496.53923150369,0.520129365400706
1499.71653066948,0.519746918990895
1502.88952422114,0.520457595974574
1506.05821215866,0.519021030660364
1509.22259448206,0.518335407675799
1512.38267119132,0.518607275179645
1516.58940918168,0.518556643595459
1519.73943945797,0.51919154502592
1522.88516412012,0.51883224116628
1526.02658316814,0.518594484811574
1529.16369660203,0.518677699136764
1532.29650442179,0.518652054052459
1535.42500662741,0.518629457901537
1538.54920321891,0.51747836802596
1541.66909419627,0.517870074432276
1545.82225121076,0.518174462225683
1548.93209575515,0.517700721154406
1552.0376346854,0.518105365285624
1555.13886800153,0.516561367051129
1558.23579570352,0.51725000627478
1561.32841779137,0.517027706595492
1564.4167342651,0.515577306098213
1567.50074512469,0.515993056472226
1570.58045037016,0.5156125139097
1574.68002640879,0.515365566828451
1577.74968522127,0.514896840190765
1580.81503841963,0.515284330979655
1583.87608600385,0.515661382629
1586.93282797394,0.51421287434968
1589.9852643299,0.515970348325407
1593.03339507173,0.515061336044543
1596.07722019942,0.514968267710269
1599.11673971298,0.514618455387988
1603.16273477575,0.514736250181187
1606.19220785634,0.514054714965649
1609.21737532279,0.516562872312981
1612.23823717512,0.514204802735371
1615.25479341331,0.514298810259889
1618.26704403737,0.514246672713564
1621.27498904729,0.514176084874398
1624.27862844309,0.515135238745589
1627.27796222475,0.515644003099809
1631.27037631165,0.516516005979699
1634.25966366034,0.517900988600945
1637.2446453949,0.520598237897725
1640.22532151532,0.524098028461376
1643.20169202161,0.528110665912392
1646.17375691377,0.534066045941323
1649.1415161918,0.537684207706254
1652.10496985569,0.542578073756345
1655.06411790546,0.545698066167173
1659.00295101649,0.539856084370531
1661.95205263328,0.527276803819546
1664.89684863594,0.505439077931549
1667.83733902446,0.475531510642732
1670.77352379886,0.440362088391779
1673.70540295912,0.396598072019697
1676.63297650524,0.347654643549679
1679.55624443724,0.297794442329918
1682.4752067551,0.251385649670517
1686.36045889027,0.190960097888428
1689.26937477516,0.15010942833554
1692.17398504592,0.125678913557056
1695.07428970255,0.108397209056621
1697.97028874504,0.101382704259255
1700.8619821734,0.0998244394116457
##END=
