##TITLE=Column 1
##JCAMP-DX=4.24
##DATA TYPE=INFRARED SPECTRUM
##Method:,Column 1,Built-In Reference,,,Model Name,NIR-X-XX
##Host Date-Time:,27/10/20 @ 14:36:18,9/7/19 @ 16:39:9,,,GUI Version,2.4.4
##Header Version:,1,1,,,Tiva Version,2.1.0.67
##System Temp (C):,53.99,27.52,,,DLPC Version,2.0.0
##Detector Temp (C),0,0,,,UUID,00:00:00:00:00:00:00:00
##Humidity (%):,13.86,73.2,,,Main Board Version,D
##Lamp PD:,2726,2274
##Shift Vector Coefficients:,-6.85384978732833,0.0551332794684546,-0.000110731550088635
##Pixel to Wavelength Coefficients:,1790.66412099084,-0.917492857141292,-0.000239200785115314
##Serial Number:,925R021,925R021
##Scan Config Name:,Column 1,SystemTest
##Scan Config Type:,Column,Column
##Start wavelength (nm):,900,900
##End wavelength (nm):,1700,1700
##Pattern Pixel Width (nm):,7.03,7.03
##Exposure (ms):,0.635,0.635
##Digital Resolution:,228,228
##NPOINTS=228
##Num Repeats:,6,30
##PGA Gain:,64,64
##Total Measurement Time in sec:,1.7961738
##XUNITS=Wavelength(nm)
##YUNITS=Reflectance(AU)
##FIRSTX=901.630473432251
##LASTX=1700.8619821734
##PEAK TABLE=X+(Y..Y)
901.630473432251,0.327892608512597
905.531115772228,0.325966651644885
909.427452498074,0.320589416608093
913.319483609787,0.318147848530375
917.207209107368,0.309919953061481
921.090628990817,0.30411058112529
924.969743260134,0.296125874512623
930.13519799724,0.289257179772185
934.004265833582,0.2941684255051
937.869028055792,0.298004768076289
941.72948466387,0.303009202627171
945.585635657816,0.306655633053552
949.43748103763,0.310607569379108
953.285020803312,0.311794895505826
957.128254954862,0.312510945047107
960.967183492279,0.312731554787592
966.07905725352,0.313058518304987
969.907939357962,0.311880835496343
973.732515848273,0.312354602513354
977.552786724452,0.311029364276334
981.368751986498,0.310631757333719
985.180411634413,0.310431948678144
988.987765668195,0.31032778369
992.790814087846,0.309458637846959
996.589556893364,0.310804916538428
1001.64784967874,0.310631677962423
1005.43654605128,0.311309689094861
1009.22093680969,0.310763500221491
1013.00102195397,0.310149354977195
1016.77680148412,0.311339362577691
1020.54827540013,0.311308872562804
1024.31544370202,0.312115951352655
1028.07830638977,0.311938254817328
1031.83686346339,0.311655399393015
1036.8415752729,0.311377872800387
1040.59008591354,0.312308177724235
1044.33429094005,0.312705139440796
1048.07419035243,0.313620934543441
1051.80978415068,0.31365994125016
1055.5410723348,0.312730238794844
1059.26805490478,0.314068132966516
1062.99073186063,0.313489682645712
1066.70910320235,0.313745748743767
1071.66023403599,0.313415458209166
1075.36855894474,0.313246264585874
1079.07257823935,0.314140501577394
1082.77229191983,0.313359665539289
1086.46769998618,0.312601009919623
1090.1588024384,0.313486370157819
1093.84559927648,0.313049733666832
1097.52809050043,0.31410670987679
1101.20627611025,0.313455989720227
1106.10382596803,0.314115501182476
1109.77196514487,0.314516129032258
1113.43579870759,0.314262934813718
1117.09532665617,0.314616107252521
1120.75054899062,0.315063377194944
1124.40146571093,0.314901424825058
1128.04807681712,0.314727528504219
1131.69038230917,0.31688994096291
1135.32838218709,0.316621764085744
1140.172351069,0.317385707849741
1143.80030451395,0.316627829029272
1147.42395234476,0.317667303611583
1151.04329456145,0.318494985517438
1154.658331164,0.318541714190913
1158.26906215241,0.319032192460419
1161.8754875267,0.318899255781023
1165.47760728685,0.318609102081109
1169.07542143287,0.318477103513732
1173.86580933892,0.319078067733157
1177.45357705197,0.318553766096382
1181.03703915088,0.318825451749327
1184.61619563566,0.318631473377097
1188.19104650631,0.31870452152468
1191.76159176283,0.318905255042662
1195.32783140522,0.31888036632973
1198.88976543347,0.320046374634086
1202.44739384759,0.319594998083728
1207.18420077777,0.318851192499185
1210.73178275892,0.319499542791753
1214.27505912594,0.318857762848803
1217.81402987882,0.319277757573309
1221.34869501757,0.319153179896915
1224.87905454219,0.317855150461064
1228.40510845267,0.31785536030284
1231.92685674903,0.317415230817293
1235.44429943125,0.317831789671373
1240.12752538557,0.31730087929307
1243.63492163481,0.316763195245413
1247.13801226993,0.317496290590605
1250.63679729091,0.317660281499666
1254.13127669776,0.317166857694396
1257.62145049048,0.316560556927379
1261.10731866907,0.316623456518873
1264.58888123353,0.316578653645931
1268.06613818385,0.315704813673872
1272.6957831623,0.315929847135005
1276.16299367965,0.315174725676259
1279.62589858286,0.315407163892884
1283.08449787195,0.314855629081552
1286.5387915469,0.315017698531204
1289.98877960772,0.314186687482791
1293.43446205441,0.314462035232324
1296.87583888696,0.314810464072647
1300.31291010539,0.314350752385356
1304.88897410797,0.314467232871773
1308.31599889342,0.314003388872464
1311.73871806474,0.314402586777825
1315.15713162192,0.314382350500923
1318.57123956497,0.313904944368572
1321.98104189389,0.313669217274844
1325.38653860868,0.31364785488311
1328.78772970934,0.313529468755046
1332.18461519586,0.313627303726032
1336.70709822258,0.31368063010049
1340.09393727613,0.313342043213609
1343.47647071555,0.313309817479599
1346.85469854083,0.312472348155589
1350.22862075199,0.312504980541596
1353.59823734901,0.313216493410853
1356.9635483319,0.312580791255861
1360.32455370065,0.312024011650058
1363.68125345528,0.311445378330525
1368.15015550613,0.311989153800662
1371.49680882778,0.311220643118332
1374.8391565353,0.311545231935886
1378.17719862868,0.311669567025655
1381.51093510794,0.31153219656867
1384.84036597306,0.311384828064834
1388.16549122405,0.310657192853118
1391.48631086091,0.310808925485239
1394.80282488363,0.310009571955889
1399.21814595862,0.309937761996919
1402.52461354837,0.308172067239223
1405.82677552399,0.307907231001286
1409.12463188548,0.307053551254048
1412.41818263283,0.306871847219463
1415.70742776605,0.306098940954592
1418.99236728514,0.306860395402886
1422.2730011901,0.306584469713472
1425.54932948093,0.307157662636847
1429.91106958005,0.307530000552202
1433.1773514379,0.307965787229344
1436.43932768162,0.308506059345817
1439.6969983112,0.308442082340576
1442.95036332666,0.307950192267153
1446.19942272798,0.308716817956374
1449.44417651517,0.309266315976397
1452.68462468823,0.308401952925745
1456.99852463033,0.308755733450935
1460.22892637041,0.308997569252878
1463.45502249637,0.309017194144736
1466.67681300819,0.309130272665776
1469.89429790587,0.308569679385656
1473.10747718943,0.308848375076087
1476.31635085885,0.309057281995063
1479.52091891415,0.308563480429628
1482.72118135531,0.310127812130478
1486.98150032154,0.309973520284676
1490.17171632972,0.309829764368974
1493.35762672377,0.310111582973037
1496.53923150369,0.309916991213654
1499.71653066948,0.30912187383352
1502.88952422114,0.309575006225265
1506.05821215866,0.309569146259314
1509.22259448206,0.310143361200292
1512.38267119132,0.310275590425003
1516.58940918168,0.310644152717136
1519.73943945797,0.310061873678254
1522.88516412012,0.309915247943092
1526.02658316814,0.309557132860142
1529.16369660203,0.309836953596038
1532.29650442179,0.310484652171401
1535.42500662741,0.310382363545834
1538.54920321891,0.310371240095459
1541.66909419627,0.310329017864985
1545.82225121076,0.310057645062703
1548.93209575515,0.310179298985754
1552.0376346854,0.310848215839542
1555.13886800153,0.310843131866091
1558.23579570352,0.310330867191781
1561.32841779137,0.310924803154119
1564.4167342651,0.31125690312916
1567.50074512469,0.310520172404955
1570.58045037016,0.310354995165904
1574.68002640879,0.31057140685754
1577.74968522127,0.3102725717958
1580.81503841963,0.309780067510585
1583.87608600385,0.310432769476369
1586.93282797394,0.309731189367589
1589.9852643299,0.309933648557543
1593.03339507173,0.309457747753182
1596.07722019942,0.310704125935909
1599.11673971298,0.309583744194442
1603.16273477575,0.308559963665946
1606.19220785634,0.309358798618503
1609.21737532279,0.310310961355118
1612.23823717512,0.310173471625648
1615.25479341331,0.310331779544831
1618.26704403737,0.309515846629026
1621.27498904729,0.309919594224617
1624.27862844309,0.310034485410246
1627.27796222475,0.309322252698019
1631.27037631165,0.308824271000113
1634.25966366034,0.309369102970644
1637.2446453949,0.307886631137393
1640.22532151532,0.307139984670326
1643.20169202161,0.306287852745952
1646.17375691377,0.30445160345585
1649.1415161918,0.304220429699938
1652.10496985569,0.304353122875411
1655.06411790546,0.303507925737596
1659.00295101649,0.309353489587871
1661.95205263328,0.316209095951192
1664.89684863594,0.329648500739946
1667.83733902446,0.352505577017248
1670.77352379886,0.379712861585652
1673.70540295912,0.41995246426107
1676.63297650524,0.467363327081253
1679.55624443724,0.520750855853271
1682.4752067551,0.58903411984383
1686.36045889027,0.665750435682002
1689.26937477516,0.721682470378456
1692.17398504592,0.758940061615256
1695.07428970255,0.801608823462389
1697.97028874504,0.814701216287678
1700.8619821734,0.813523088199365
##END=
