##TITLE=Column 1
##JCAMP-DX=4.24
##DATA TYPE=INFRARED SPECTRUM
##Method:,Column 1,Built-In Reference,,,Model Name,NIR-X-XX
##Host Date-Time:,27/10/20 @ 14:36:57,9/7/19 @ 16:39:9,,,GUI Version,2.4.4
##Header Version:,1,1,,,Tiva Version,2.1.0.67
##System Temp (C):,54.04,27.52,,,DLPC Version,2.0.0
##Detector Temp (C),0,0,,,UUID,00:00:00:00:00:00:00:00
##Humidity (%):,13.86,73.2,,,Main Board Version,D
##Lamp PD:,2725,2274
##Shift Vector Coefficients:,-6.85384978732833,0.0551332794684546,-0.000110731550088635
##Pixel to Wavelength Coefficients:,1790.66412099084,-0.917492857141292,-0.000239200785115314
##Serial Number:,925R021,925R021
##Scan Config Name:,Column 1,SystemTest
##Scan Config Type:,Column,Column
##Start wavelength (nm):,900,900
##End wavelength (nm):,1700,1700
##Pattern Pixel Width (nm):,7.03,7.03
##Exposure (ms):,0.635,0.635
##Digital Resolution:,228,228
##NPOINTS=228
##Num Repeats:,6,30
##PGA Gain:,64,64
##Total Measurement Time in sec:,1.797171
##XUNITS=Wavelength(nm)
##YUNITS=Reflectance(AU)
##FIRSTX=901.630473432251
##LASTX=1700.8619821734
##PEAK TABLE=X+(Y..Y)
901.630473432251,0.327510746002683
905.531115772228,0.325939612438035
909.427452498074,0.326957191150383
913.319483609787,0.320004622674217
917.207209107368,0.31620636184569
921.090628990817,0.309036535724097
924.969743260134,0.302148604927689
930.13519799724,0.298581620923229
934.004265833582,0.301108823542106
937.869028055792,0.306972911566585
941.72948466387,0.312241940643996
945.585635657816,0.316868889868062
949.43748103763,0.321217885765694
953.285020803312,0.32319546091046
957.128254954862,0.322989534146955
960.967183492279,0.323686306099672
966.07905725352,0.324065630864626
969.907939357962,0.32450274519413
973.732515848273,0.323604668210197
977.552786724452,0.322969365568018
981.368751986498,0.3226126824398
985.180411634413,0.322100680076284
988.987765668195,0.322084419809251
992.790814087846,0.320993138361892
996.589556893364,0.322089136763279
1001.64784967874,0.321391186898531
1005.43654605128,0.322347443913556
1009.22093680969,0.322159559114227
1013.00102195397,0.32229793673345
1016.77680148412,0.3221191595637
1020.54827540013,0.321382576249879
1024.31544370202,0.321524699738409
1028.07830638977,0.320672696519016
1031.83686346339,0.32137001188818
1036.8415752729,0.320237038024651
1040.59008591354,0.32070533230072
1044.33429094005,0.320201207726569
1048.07419035243,0.31872216471268
1051.80978415068,0.319431135484276
1055.5410723348,0.318168836135328
1059.26805490478,0.317420923157542
1062.99073186063,0.31685876337491
1066.70910320235,0.317246425784431
1071.66023403599,0.316687165476439
1075.36855894474,0.31600039760371
1079.07257823935,0.316362863368231
1082.77229191983,0.316720148948556
1086.46769998618,0.31626909162303
1090.1588024384,0.316634651591777
1093.84559927648,0.317067803147724
1097.52809050043,0.316926499674278
1101.20627611025,0.316810933940774
1106.10382596803,0.317726502484008
1109.77196514487,0.317920637829912
1113.43579870759,0.319051166847626
1117.09532665617,0.31910598868631
1120.75054899062,0.319359340197333
1124.40146571093,0.320612262103913
1128.04807681712,0.319663343100757
1131.69038230917,0.321239582172154
1135.32838218709,0.322109857309576
1140.172351069,0.323898912320597
1143.80030451395,0.32398463519222
1147.42395234476,0.325870168807998
1151.04329456145,0.324876102935021
1154.658331164,0.325188196014185
1158.26906215241,0.325663375041856
1161.8754875267,0.325747372447215
1165.47760728685,0.325354070552209
1169.07542143287,0.32562340733533
1173.86580933892,0.325491954131471
1177.45357705197,0.325231503988364
1181.03703915088,0.325953479430988
1184.61619563566,0.324913004497933
1188.19104650631,0.325633859915504
1191.76159176283,0.325782622554652
1195.32783140522,0.325862520200661
1198.88976543347,0.326645008316012
1202.44739384759,0.326220843694573
1207.18420077777,0.325925251130833
1210.73178275892,0.326230616185345
1214.27505912594,0.3251339598726
1217.81402987882,0.326002478414892
1221.34869501757,0.325627161803008
1224.87905454219,0.325306008597775
1228.40510845267,0.32558840497041
1231.92685674903,0.324864825895754
1235.44429943125,0.324792915993014
1240.12752538557,0.324274044779334
1243.63492163481,0.324747288902357
1247.13801226993,0.323957644452151
1250.63679729091,0.32395914873916
1254.13127669776,0.323712070941666
1257.62145049048,0.323891054056466
1261.10731866907,0.323453589371768
1264.58888123353,0.3233245560654
1268.06613818385,0.323275334863651
1272.6957831623,0.322774506650257
1276.16299367965,0.322583681197613
1279.62589858286,0.322265598246695
1283.08449787195,0.322262815327908
1286.5387915469,0.321873607309379
1289.98877960772,0.322062239854145
1293.43446205441,0.3220552543111
1296.87583888696,0.321836228287841
1300.31291010539,0.32130059686436
1304.88897410797,0.322043198288059
1308.31599889342,0.321919440692778
1311.73871806474,0.322278494162868
1315.15713162192,0.32188323204248
1318.57123956497,0.322025385277575
1321.98104189389,0.322033350526992
1325.38653860868,0.322126011003647
1328.78772970934,0.322429840142096
1332.18461519586,0.321925758558913
1336.70709822258,0.322084556588766
1340.09393727613,0.322115801699592
1343.47647071555,0.322163302809444
1346.85469854083,0.32142764195481
1350.22862075199,0.32150065514534
1353.59823734901,0.321294909442715
1356.9635483319,0.321448518722445
1360.32455370065,0.321461142358765
1363.68125345528,0.321395620453527
1368.15015550613,0.321712916337557
1371.49680882778,0.32141510805702
1374.8391565353,0.321337342687288
1378.17719862868,0.321153193678312
1381.51093510794,0.321186530985625
1384.84036597306,0.321078568550193
1388.16549122405,0.319986950203162
1391.48631086091,0.320680259325378
1394.80282488363,0.319767808423321
1399.21814595862,0.320408272077631
1402.52461354837,0.32029194001739
1405.82677552399,0.319362354135544
1409.12463188548,0.318584480970562
1412.41818263283,0.31831791772575
1415.70742776605,0.318785724648194
1418.99236728514,0.318520120719965
1422.2730011901,0.318829782599225
1425.54932948093,0.318869462024167
1429.91106958005,0.319418327874284
1433.1773514379,0.32039966234721
1436.43932768162,0.320066366341039
1439.6969983112,0.320430760911122
1442.95036332666,0.321129033430497
1446.19942272798,0.321260215873274
1449.44417651517,0.321418694489
1452.68462468823,0.321754718356045
1456.99852463033,0.321559527860081
1460.22892637041,0.321711796221147
1463.45502249637,0.321902887235496
1466.67681300819,0.321818125546223
1469.89429790587,0.322008834233171
1473.10747718943,0.321494425226777
1476.31635085885,0.321684527671507
1479.52091891415,0.322150477680753
1482.72118135531,0.322332100652994
1486.98150032154,0.322413675369312
1490.17171632972,0.322582171664438
1493.35762672377,0.322641436985954
1496.53923150369,0.322865372395443
1499.71653066948,0.322978101281573
1502.88952422114,0.323348895191589
1506.05821215866,0.322921810245141
1509.22259448206,0.323516322832894
1512.38267119132,0.32370898112627
1516.58940918168,0.324414395558217
1519.73943945797,0.32455631028104
1522.88516412012,0.324850425410763
1526.02658316814,0.324311040021327
1529.16369660203,0.324958952411714
1532.29650442179,0.325407615622801
1535.42500662741,0.325633981766049
1538.54920321891,0.325197222386261
1541.66909419627,0.326498849403622
1545.82225121076,0.326992554848448
1548.93209575515,0.327421114225446
1552.0376346854,0.328450759955815
1555.13886800153,0.328666186334296
1558.23579570352,0.329588614447736
1561.32841779137,0.329570243703033
1564.4167342651,0.330628354542385
1567.50074512469,0.331879537361636
1570.58045037016,0.332048252704887
1574.68002640879,0.332898566501866
1577.74968522127,0.333054223387041
1580.81503841963,0.334004453734326
1583.87608600385,0.335056048122764
1586.93282797394,0.335372101034571
1589.9852643299,0.336195018307369
1593.03339507173,0.336646916627615
1596.07722019942,0.338256159058986
1599.11673971298,0.338448604606651
1603.16273477575,0.339908066858652
1606.19220785634,0.34086111260016
1609.21737532279,0.341602998602568
1612.23823717512,0.341893691795001
1615.25479341331,0.342327940773238
1618.26704403737,0.342974056888794
1621.27498904729,0.343024294648261
1624.27862844309,0.343582342050314
1627.27796222475,0.344022136970989
1631.27037631165,0.344483175955926
1634.25966366034,0.343666712059607
1637.2446453949,0.342519330305447
1640.22532151532,0.340586858413619
1643.20169202161,0.338125799581117
1646.17375691377,0.336099721774784
1649.1415161918,0.332649765742271
1652.10496985569,0.329449306573502
1655.06411790546,0.329034605102883
1659.00295101649,0.33277860067962
1661.95205263328,0.341144388981327
1664.89684863594,0.360646782475691
1667.83733902446,0.385249469503237
1670.77352379886,0.419351108568507
1673.70540295912,0.464226219932948
1676.63297650524,0.521196177299264
1679.55624443724,0.581224778625662
1682.4752067551,0.653392180161829
1686.36045889027,0.751540826591479
1689.26937477516,0.814121685803323
1692.17398504592,0.86370549467691
1695.07428970255,0.901032290408586
1697.97028874504,0.913194077207827
1700.8619821734,0.905417786464696
##END=
