##TITLE=Column 1
##JCAMP-DX=4.24
##DATA TYPE=INFRARED SPECTRUM
##Method:,Column 1,Built-In Reference,,,Model Name,NIR-X-XX
##Host Date-Time:,27/10/20 @ 14:36:51,9/7/19 @ 16:39:9,,,GUI Version,2.4.4
##Header Version:,1,1,,,Tiva Version,2.1.0.67
##System Temp (C):,54.04,27.52,,,DLPC Version,2.0.0
##Detector Temp (C),0,0,,,UUID,00:00:00:00:00:00:00:00
##Humidity (%):,13.86,73.2,,,Main Board Version,D
##Lamp PD:,2724,2274
##Shift Vector Coefficients:,-6.85384978732833,0.0551332794684546,-0.000110731550088635
##Pixel to Wavelength Coefficients:,1790.66412099084,-0.917492857141292,-0.000239200785115314
##Serial Number:,925R021,925R021
##Scan Config Name:,Column 1,SystemTest
##Scan Config Type:,Column,Column
##Start wavelength (nm):,900,900
##End wavelength (nm):,1700,1700
##Pattern Pixel Width (nm):,7.03,7.03
##Exposure (ms):,0.635,0.635
##Digital Resolution:,228,228
##NPOINTS=228
##Num Repeats:,6,30
##PGA Gain:,64,64
##Total Measurement Time in sec:,1.788188
##XUNITS=Wavelength(nm)
##YUNITS=Reflectance(AU)
##FIRSTX=901.630473432251
##LASTX=1700.8619821734
##PEAK TABLE=X+(Y..Y)
901.630473432251,0.360106138195063
905.531115772228,0.354574132492114
909.427452498074,0.35798440271781
913.319483609787,0.356123117223314
917.207209107368,0.351459145327801
921.090628990817,0.344754389031791
924.969743260134,0.340806902082239
930.13519799724,0.339104701646384
934.004265833582,0.342328227306668
937.869028055792,0.350797612761804
941.72948466387,0.358153452396635
945.585635657816,0.365244835158537
949.43748103763,0.372985241702321
953.285020803312,0.377222647890301
957.128254954862,0.380203076394041
960.967183492279,0.382023508287548
966.07905725352,0.384287067378119
969.907939357962,0.385834399405089
973.732515848273,0.386416382441378
977.552786724452,0.387101461755398
981.368751986498,0.387102113739967
985.180411634413,0.38677218215558
988.987765668195,0.38728054027064
992.790814087846,0.387517526336034
996.589556893364,0.38811836546661
1001.64784967874,0.388654398109066
1005.43654605128,0.389215507913862
1009.22093680969,0.389452274686698
1013.00102195397,0.389345205200029
1016.77680148412,0.391170877992943
1020.54827540013,0.390329433504812
1024.31544370202,0.389966366917535
1028.07830638977,0.390605085733508
1031.83686346339,0.390442472836339
1036.8415752729,0.390067544885088
1040.59008591354,0.390320683819522
1044.33429094005,0.390225338247476
1048.07419035243,0.38875996051903
1051.80978415068,0.387596880513832
1055.5410723348,0.387011748532039
1059.26805490478,0.386000281420884
1062.99073186063,0.384631453659958
1066.70910320235,0.384999112675611
1071.66023403599,0.383961342323641
1075.36855894474,0.382005037929939
1079.07257823935,0.381403179909849
1082.77229191983,0.38091813121521
1086.46769998618,0.379629696138219
1090.1588024384,0.378956801098204
1093.84559927648,0.377842878811901
1097.52809050043,0.376725328015164
1101.20627611025,0.376984989194556
1106.10382596803,0.374739635709613
1109.77196514487,0.373817815249267
1113.43579870759,0.373843260358981
1117.09532665617,0.373421614059434
1120.75054899062,0.372923580610246
1124.40146571093,0.371801243338466
1128.04807681712,0.371330886707424
1131.69038230917,0.371575203985058
1135.32838218709,0.37121419181862
1140.172351069,0.371561581533049
1143.80030451395,0.37091114161373
1147.42395234476,0.372631778976595
1151.04329456145,0.371860716258978
1154.658331164,0.372120030692022
1158.26906215241,0.372379522217954
1161.8754875267,0.372101350499062
1165.47760728685,0.371773072506396
1169.07542143287,0.371803205468199
1173.86580933892,0.371220879933305
1177.45357705197,0.370768075979201
1181.03703915088,0.371387927720108
1184.61619563566,0.371932363846341
1188.19104650631,0.372429416280191
1191.76159176283,0.373583199282426
1195.32783140522,0.37438437168851
1198.88976543347,0.375029571052693
1202.44739384759,0.375872795172776
1207.18420077777,0.377642260755617
1210.73178275892,0.377693769003528
1214.27505912594,0.378559255386117
1217.81402987882,0.379094772430328
1221.34869501757,0.379200816436435
1224.87905454219,0.379672168805172
1228.40510845267,0.380486215993725
1231.92685674903,0.380574980574981
1235.44429943125,0.381351275599479
1240.12752538557,0.381415608778572
1243.63492163481,0.381863553014444
1247.13801226993,0.382031574861022
1250.63679729091,0.382838937233676
1254.13127669776,0.382738131145563
1257.62145049048,0.383106238657662
1261.10731866907,0.383490794041394
1264.58888123353,0.38347095281906
1268.06613818385,0.383828126555562
1272.6957831623,0.383053383868757
1276.16299367965,0.383788878677488
1279.62589858286,0.383324429833573
1283.08449787195,0.383522064132282
1286.5387915469,0.383653531560473
1289.98877960772,0.383371784349946
1293.43446205441,0.383409101772238
1296.87583888696,0.383372050050156
1300.31291010539,0.383279128662099
1304.88897410797,0.38323620054687
1308.31599889342,0.382973846292102
1311.73871806474,0.383671614268833
1315.15713162192,0.382859980087532
1318.57123956497,0.38282577880763
1321.98104189389,0.38315228281371
1325.38653860868,0.382600854920573
1328.78772970934,0.383104795737123
1332.18461519586,0.382578156708952
1336.70709822258,0.382192418618487
1340.09393727613,0.382743560493744
1343.47647071555,0.382358437675201
1346.85469854083,0.382161502386517
1350.22862075199,0.381877229812967
1353.59823734901,0.381386825382031
1356.9635483319,0.381087815061141
1360.32455370065,0.380838469615731
1363.68125345528,0.380961078993963
1368.15015550613,0.381446133091234
1371.49680882778,0.379807096812412
1374.8391565353,0.380183510605861
1378.17719862868,0.379726764293845
1381.51093510794,0.379581691639784
1384.84036597306,0.379469083012447
1388.16549122405,0.379927039772222
1391.48631086091,0.380261318436645
1394.80282488363,0.379126831281381
1399.21814595862,0.378999033070154
1402.52461354837,0.378843159515494
1405.82677552399,0.377439148725706
1409.12463188548,0.3768720922822
1412.41818263283,0.376837294412247
1415.70742776605,0.376996953431017
1418.99236728514,0.376976978139467
1422.2730011901,0.377156217778359
1425.54932948093,0.377320971281907
1429.91106958005,0.378659427976877
1433.1773514379,0.37852563124654
1436.43932768162,0.378414652943589
1439.6969983112,0.379078905478857
1442.95036332666,0.379610231956327
1446.19942272798,0.379984669826757
1449.44417651517,0.379874997452789
1452.68462468823,0.380314799970852
1456.99852463033,0.380390101008036
1460.22892637041,0.380594120840766
1463.45502249637,0.379788617050187
1466.67681300819,0.3804042014788
1469.89429790587,0.380862809120525
1473.10747718943,0.381243226390724
1476.31635085885,0.381549843017056
1479.52091891415,0.38154206798145
1482.72118135531,0.382029478885014
1486.98150032154,0.38168726621598
1490.17171632972,0.382126479944802
1493.35762672377,0.382570632098727
1496.53923150369,0.382349075988058
1499.71653066948,0.382085977354734
1502.88952422114,0.382438017499652
1506.05821215866,0.382800557202377
1509.22259448206,0.383357703677803
1512.38267119132,0.383281894487871
1516.58940918168,0.383840448851182
1519.73943945797,0.384936711552207
1522.88516412012,0.384977347186347
1526.02658316814,0.384388016928255
1529.16369660203,0.385038154069767
1532.29650442179,0.385383279347135
1535.42500662741,0.386036090173926
1538.54920321891,0.386576719595099
1541.66909419627,0.386805909322466
1545.82225121076,0.386491322910478
1548.93209575515,0.387483023665732
1552.0376346854,0.388739794133218
1555.13886800153,0.388532559849661
1558.23579570352,0.389222289802075
1561.32841779137,0.389645963943107
1564.4167342651,0.391441866241321
1567.50074512469,0.392118743320885
1570.58045037016,0.392033168719988
1574.68002640879,0.39268893357516
1577.74968522127,0.393882049532247
1580.81503841963,0.394708468286892
1583.87608600385,0.395921674191293
1586.93282797394,0.396123970707531
1589.9852643299,0.397025875473574
1593.03339507173,0.39856491298074
1596.07722019942,0.399156290044838
1599.11673971298,0.400628950626407
1603.16273477575,0.400241062471614
1606.19220785634,0.401757247625393
1609.21737532279,0.402807924878214
1612.23823717512,0.402902961802008
1615.25479341331,0.404617493830546
1618.26704403737,0.405357248248397
1621.27498904729,0.406513155998732
1624.27862844309,0.407306411447027
1627.27796222475,0.407738827481677
1631.27037631165,0.409431298142989
1634.25966366034,0.409139544384569
1637.2446453949,0.408811348899916
1640.22532151532,0.408821093081368
1643.20169202161,0.406706381410381
1646.17375691377,0.406970273832186
1649.1415161918,0.407138416751323
1652.10496985569,0.406600618562373
1655.06411790546,0.408275630911603
1659.00295101649,0.416262960704017
1661.95205263328,0.427962654834535
1664.89684863594,0.446083251392986
1667.83733902446,0.476353446868709
1670.77352379886,0.51652050075771
1673.70540295912,0.572666253110385
1676.63297650524,0.640545960912317
1679.55624443724,0.718151739438101
1682.4752067551,0.801063769592033
1686.36045889027,0.919862848722708
1689.26937477516,0.997466962187745
1692.17398504592,1.05637015949772
1695.07428970255,1.1075587357291
1697.97028874504,1.12903225806452
1700.8619821734,1.12362570241876
##END=
