##TITLE=Column 1
##JCAMP-DX=4.24
##DATA TYPE=INFRARED SPECTRUM
##Method:,Column 1,Built-In Reference,,,Model Name,NIR-X-XX
##Host Date-Time:,27/10/20 @ 14:35:55,9/7/19 @ 16:39:9,,,GUI Version,2.4.4
##Header Version:,1,1,,,Tiva Version,2.1.0.67
##System Temp (C):,53.96,27.52,,,DLPC Version,2.0.0
##Detector Temp (C),0,0,,,UUID,00:00:00:00:00:00:00:00
##Humidity (%):,13.86,73.2,,,Main Board Version,D
##Lamp PD:,2724,2274
##Shift Vector Coefficients:,-6.85384978732833,0.0551332794684546,-0.000110731550088635
##Pixel to Wavelength Coefficients:,1790.66412099084,-0.917492857141292,-0.000239200785115314
##Serial Number:,925R021,925R021
##Scan Config Name:,Column 1,SystemTest
##Scan Config Type:,Column,Column
##Start wavelength (nm):,900,900
##End wavelength (nm):,1700,1700
##Pattern Pixel Width (nm):,7.03,7.03
##Exposure (ms):,0.635,0.635
##Digital Resolution:,228,228
##NPOINTS=228
##Num Repeats:,6,30
##PGA Gain:,64,64
##Total Measurement Time in sec:,1.8291247
##XUNITS=Wavelength(nm)
##YUNITS=Absorbance(AU)
##FIRSTX=901.630473432251
##LASTX=1700.8619821734
##PEAK TABLE=X+(Y..Y)
901.630473432251,0.476594285921767
905.531115772228,0.476679160962154
909.427452498074,0.479734694836501
913.319483609787,0.484215528251146
917.207209107368,0.496856000866694
921.090628990817,0.504913606332679
924.969743260134,0.516682297235579
930.13519799724,0.522477344972853
934.004265833582,0.519555528719283
937.869028055792,0.512164879529309
941.72948466387,0.503565653950374
945.585635657816,0.500822550856762
949.43748103763,0.498088412464013
953.285020803312,0.494157806861708
957.128254954862,0.496708152416586
960.967183492279,0.496627233280002
966.07905725352,0.498380756961322
969.907939357962,0.498448049281376
973.732515848273,0.499017876592581
977.552786724452,0.503356708319836
981.368751986498,0.503491986904406
985.180411634413,0.504181727884351
988.987765668195,0.504510412120488
992.790814087846,0.505697171928006
996.589556893364,0.505806877929182
1001.64784967874,0.507875669464332
1005.43654605128,0.507445669524385
1009.22093680969,0.507553354251939
1013.00102195397,0.506550049167857
1016.77680148412,0.509396650032797
1020.54827540013,0.509765709820107
1024.31544370202,0.509498618727779
1028.07830638977,0.509215568172688
1031.83686346339,0.5098379396224
1036.8415752729,0.510424008567453
1040.59008591354,0.51035072174662
1044.33429094005,0.51087878036837
1048.07419035243,0.511568515183945
1051.80978415068,0.512103552104659
1055.5410723348,0.512911295451243
1059.26805490478,0.512719419848461
1062.99073186063,0.513333656704466
1066.70910320235,0.512924023258408
1071.66023403599,0.513300749822528
1075.36855894474,0.513996946282585
1079.07257823935,0.513001814654605
1082.77229191983,0.511560931009424
1086.46769998618,0.51068815672247
1090.1588024384,0.510194109529389
1093.84559927648,0.509621396763653
1097.52809050043,0.508654088221493
1101.20627611025,0.507823262150548
1106.10382596803,0.506685788856362
1109.77196514487,0.504526366742602
1113.43579870759,0.503813185280421
1117.09532665617,0.502116435857515
1120.75054899062,0.500995224712782
1124.40146571093,0.500188380783081
1128.04807681712,0.498419946469214
1131.69038230917,0.498738215560301
1135.32838218709,0.495679131647295
1140.172351069,0.494447247181776
1143.80030451395,0.492900837360044
1147.42395234476,0.492597243459052
1151.04329456145,0.492974100423045
1154.658331164,0.491997646230934
1158.26906215241,0.492159926991775
1161.8754875267,0.492284325869443
1165.47760728685,0.491764265742203
1169.07542143287,0.492339943925565
1173.86580933892,0.491592999316242
1177.45357705197,0.492955873386841
1181.03703915088,0.493050975965474
1184.61619563566,0.49230660274468
1188.19104650631,0.492488163562977
1191.76159176283,0.492541516617144
1195.32783140522,0.492817414522554
1198.88976543347,0.492411698072498
1202.44739384759,0.491524685972095
1207.18420077777,0.492499632561319
1210.73178275892,0.492185027651216
1214.27505912594,0.49354746285118
1217.81402987882,0.493219167286784
1221.34869501757,0.494571476046493
1224.87905454219,0.494683485939399
1228.40510845267,0.495777885026637
1231.92685674903,0.495913236941684
1235.44429943125,0.496903474570935
1240.12752538557,0.49827032826384
1243.63492163481,0.498445707248403
1247.13801226993,0.499762523497904
1250.63679729091,0.499802129085
1254.13127669776,0.500390193596414
1257.62145049048,0.500084334965055
1261.10731866907,0.501200303120284
1264.58888123353,0.501517046418031
1268.06613818385,0.501470729915092
1272.6957831623,0.503446055573921
1276.16299367965,0.504268944089416
1279.62589858286,0.505307293927596
1283.08449787195,0.504517197050659
1286.5387915469,0.506341786837476
1289.98877960772,0.505529326874389
1293.43446205441,0.506449547750097
1296.87583888696,0.506276784557925
1300.31291010539,0.506691571418774
1304.88897410797,0.507022598247841
1308.31599889342,0.507143186352725
1311.73871806474,0.507019828059439
1315.15713162192,0.507625266629082
1318.57123956497,0.507149135581383
1321.98104189389,0.507404374316615
1325.38653860868,0.508132175320647
1328.78772970934,0.507721294219302
1332.18461519586,0.508009994153416
1336.70709822258,0.508059077897007
1340.09393727613,0.508447752043898
1343.47647071555,0.508488590704539
1346.85469854083,0.509176498807248
1350.22862075199,0.509815761125998
1353.59823734901,0.509674424516592
1356.9635483319,0.510433410704716
1360.32455370065,0.510915595087746
1363.68125345528,0.510712684669192
1368.15015550613,0.510494088208284
1371.49680882778,0.511302842935699
1374.8391565353,0.511244549053128
1378.17719862868,0.512024050106311
1381.51093510794,0.512928465996758
1384.84036597306,0.511741189464024
1388.16549122405,0.512557046818532
1391.48631086091,0.513045866991009
1394.80282488363,0.513305180715787
1399.21814595862,0.515047007953161
1402.52461354837,0.516401790993067
1405.82677552399,0.518490513713928
1409.12463188548,0.518246929900242
1412.41818263283,0.52006195159141
1415.70742776605,0.519091892460046
1418.99236728514,0.519725583349529
1422.2730011901,0.519557173182808
1425.54932948093,0.519765855310011
1429.91106958005,0.518898387214226
1433.1773514379,0.518505610965437
1436.43932768162,0.517170442157593
1439.6969983112,0.517525952515876
1442.95036332666,0.516949664780948
1446.19942272798,0.517026756832491
1449.44417651517,0.516212244612751
1452.68462468823,0.516836275223184
1456.99852463033,0.516755837796041
1460.22892637041,0.516906987265866
1463.45502249637,0.516326597438703
1466.67681300819,0.516949577258244
1469.89429790587,0.516680534828997
1473.10747718943,0.515989555789089
1476.31635085885,0.516424504351249
1479.52091891415,0.515285273519117
1482.72118135531,0.515682626544552
1486.98150032154,0.515180759571969
1490.17171632972,0.515385231432187
1493.35762672377,0.515031293046735
1496.53923150369,0.515331997807662
1499.71653066948,0.5148567644487
1502.88952422114,0.515198109607828
1506.05821215866,0.514801889010477
1509.22259448206,0.51582895186317
1512.38267119132,0.514708293447621
1516.58940918168,0.513737010020296
1519.73943945797,0.513574725167127
1522.88516412012,0.512849238412881
1526.02658316814,0.513086212903154
1529.16369660203,0.512860729712147
1532.29650442179,0.512793242168629
1535.42500662741,0.512820360178777
1538.54920321891,0.511617734378716
1541.66909419627,0.510959522163528
1545.82225121076,0.510440884808671
1548.93209575515,0.509858822158896
1552.0376346854,0.509972223471154
1555.13886800153,0.509278643199286
1558.23579570352,0.508913513566127
1561.32841779137,0.507950720593325
1564.4167342651,0.507103078619682
1567.50074512469,0.506561046336936
1570.58045037016,0.50587641035226
1574.68002640879,0.50479597956031
1577.74968522127,0.504879690359522
1580.81503841963,0.504014846646965
1583.87608600385,0.503558388248201
1586.93282797394,0.502928144058363
1589.9852643299,0.501319976494307
1593.03339507173,0.501894228451856
1596.07722019942,0.502207838550067
1599.11673971298,0.501077149898796
1603.16273477575,0.500547623674721
1606.19220785634,0.498603157485149
1609.21737532279,0.500420697542106
1612.23823717512,0.49909978489506
1615.25479341331,0.499218435663164
1618.26704403737,0.497879301521919
1621.27498904729,0.498166893278163
1624.27862844309,0.499229079651492
1627.27796222475,0.49934745520707
1631.27037631165,0.497376266732078
1634.25966366034,0.499587566970056
1637.2446453949,0.500864752335779
1640.22532151532,0.500647134892475
1643.20169202161,0.502170416688718
1646.17375691377,0.506028485802046
1649.1415161918,0.50472480141275
1652.10496985569,0.505532794322441
1655.06411790546,0.505365185328516
1659.00295101649,0.496228652759452
1661.95205263328,0.489006929110027
1664.89684863594,0.469126915451241
1667.83733902446,0.446373281901519
1670.77352379886,0.411459033699267
1673.70540295912,0.370168850224456
1676.63297650524,0.327870106516347
1679.55624443724,0.277673507304454
1682.4752067551,0.233773685254626
1686.36045889027,0.177095408594135
1689.26937477516,0.143009806478874
1692.17398504592,0.119079009958825
1695.07428970255,0.100654671756408
1697.97028874504,0.0976570629130334
1700.8619821734,0.09578739796337
##END=
