##TITLE=Column 1
##JCAMP-DX=4.24
##DATA TYPE=INFRARED SPECTRUM
##Method:,Column 1,Built-In Reference,,,Model Name,NIR-X-XX
##Host Date-Time:,27/10/20 @ 14:36:11,9/7/19 @ 16:39:9,,,GUI Version,2.4.4
##Header Version:,1,1,,,Tiva Version,2.1.0.67
##System Temp (C):,53.99,27.52,,,DLPC Version,2.0.0
##Detector Temp (C),0,0,,,UUID,00:00:00:00:00:00:00:00
##Humidity (%):,13.86,73.2,,,Main Board Version,D
##Lamp PD:,2726,2274
##Shift Vector Coefficients:,-6.85384978732833,0.0551332794684546,-0.000110731550088635
##Pixel to Wavelength Coefficients:,1790.66412099084,-0.917492857141292,-0.000239200785115314
##Serial Number:,925R021,925R021
##Scan Config Name:,Column 1,SystemTest
##Scan Config Type:,Column,Column
##Start wavelength (nm):,900,900
##End wavelength (nm):,1700,1700
##Pattern Pixel Width (nm):,7.03,7.03
##Exposure (ms):,0.635,0.635
##Digital Resolution:,228,228
##NPOINTS=228
##Num Repeats:,6,30
##PGA Gain:,64,64
##Total Measurement Time in sec:,1.7861857
##XUNITS=Wavelength(nm)
##YUNITS=Reflectance(AU)
##FIRSTX=901.630473432251
##LASTX=1700.8619821734
##PEAK TABLE=X+(Y..Y)
901.630473432251,0.320049740039753
905.531115772228,0.316674177557458
909.427452498074,0.317593801251799
913.319483609787,0.313317153973574
917.207209107368,0.308215637791096
921.090628990817,0.298928651699423
924.969743260134,0.290246937477532
930.13519799724,0.289214428895792
934.004265833582,0.29004216896071
937.869028055792,0.295276724427591
941.72948466387,0.300747125355214
945.585635657816,0.305283596098113
949.43748103763,0.306548865829287
953.285020803312,0.309532616449576
957.128254954862,0.309772693261672
960.967183492279,0.309091244500334
966.07905725352,0.309384578276396
969.907939357962,0.308840750248592
973.732515848273,0.306830535339369
977.552786724452,0.306301263697229
981.368751986498,0.30619145833607
985.180411634413,0.304695250774917
988.987765668195,0.304721820135068
992.790814087846,0.303681461169084
996.589556893364,0.304340687884105
1001.64784967874,0.304575384095897
1005.43654605128,0.305002058657372
1009.22093680969,0.303944917857874
1013.00102195397,0.304544689086911
1016.77680148412,0.303605721475399
1020.54827540013,0.304075561048346
1024.31544370202,0.305058207465504
1028.07830638977,0.304324342251766
1031.83686346339,0.305692326310369
1036.8415752729,0.305097174638169
1040.59008591354,0.30465679947222
1044.33429094005,0.30554761876178
1048.07419035243,0.305219191603072
1051.80978415068,0.305146765983022
1055.5410723348,0.305098775771013
1059.26805490478,0.304800652120118
1062.99073186063,0.304869013930554
1066.70910320235,0.304607523052201
1071.66023403599,0.305950812579301
1075.36855894474,0.306288199655249
1079.07257823935,0.306345326034968
1082.77229191983,0.306364471728159
1086.46769998618,0.306876216608365
1090.1588024384,0.307942916247611
1093.84559927648,0.307990468325165
1097.52809050043,0.308055567967752
1101.20627611025,0.30859412417499
1106.10382596803,0.309147484667115
1109.77196514487,0.309688874633431
1113.43579870759,0.311101066222067
1117.09532665617,0.311489185310676
1120.75054899062,0.311489744254904
1124.40146571093,0.311888481148025
1128.04807681712,0.313338367482625
1131.69038230917,0.313255039791567
1135.32838218709,0.313719365376856
1140.172351069,0.315394846931114
1143.80030451395,0.315470148221449
1147.42395234476,0.316299103702374
1151.04329456145,0.315694744420446
1154.658331164,0.31631032122934
1158.26906215241,0.316530091969654
1161.8754875267,0.316362238109383
1165.47760728685,0.315841005701392
1169.07542143287,0.315442317125208
1173.86580933892,0.31657700596165
1177.45357705197,0.315868280939473
1181.03703915088,0.315718954248366
1184.61619563566,0.315455567712132
1188.19104650631,0.316018745999959
1191.76159176283,0.315537920963091
1195.32783140522,0.315373732826006
1198.88976543347,0.316335320387683
1202.44739384759,0.316250880148311
1207.18420077777,0.316724420042816
1210.73178275892,0.31637946383042
1214.27505912594,0.315810932763318
1217.81402987882,0.316235301248636
1221.34869501757,0.316231161876142
1224.87905454219,0.315938699832639
1228.40510845267,0.315393814860669
1231.92685674903,0.315495958794928
1235.44429943125,0.314914957395563
1240.12752538557,0.313976608369671
1243.63492163481,0.31448423435263
1247.13801226993,0.313918072303946
1250.63679729091,0.313601654518706
1254.13127669776,0.314051094890511
1257.62145049048,0.313268675809954
1261.10731866907,0.313567986407113
1264.58888123353,0.312995163369663
1268.06613818385,0.312709600894297
1272.6957831623,0.311960671878715
1276.16299367965,0.312338755217964
1279.62589858286,0.311900554756524
1283.08449787195,0.31164195795085
1286.5387915469,0.31116966489255
1289.98877960772,0.310869117729617
1293.43446205441,0.311511845899741
1296.87583888696,0.311160973549443
1300.31291010539,0.310689966794166
1304.88897410797,0.31057930856088
1308.31599889342,0.31069917309949
1311.73871806474,0.310723700442817
1315.15713162192,0.310931374582564
1318.57123956497,0.310778710541816
1321.98104189389,0.310588579015204
1325.38653860868,0.31099576673509
1328.78772970934,0.311049249152269
1332.18461519586,0.310055865921788
1336.70709822258,0.310663338549682
1340.09393727613,0.310488241014213
1343.47647071555,0.310193837081335
1346.85469854083,0.309508070434778
1350.22862075199,0.309940573157461
1353.59823734901,0.309685304082659
1356.9635483319,0.309491082757974
1360.32455370065,0.309403545196409
1363.68125345528,0.309069479702199
1368.15015550613,0.309374157669515
1371.49680882778,0.309285956626402
1374.8391565353,0.309187319853484
1378.17719862868,0.308260277121093
1381.51093510794,0.308482002610102
1384.84036597306,0.308810278051401
1388.16549122405,0.308523183867965
1391.48631086091,0.30807985900535
1394.80282488363,0.308003473416329
1399.21814595862,0.306941864603883
1402.52461354837,0.306219252557292
1405.82677552399,0.30572929697273
1409.12463188548,0.305088035411151
1412.41818263283,0.304830288152723
1415.70742776605,0.304562599738866
1418.99236728514,0.304096436612583
1422.2730011901,0.304291378033373
1425.54932948093,0.304776955803681
1429.91106958005,0.305077061239199
1433.1773514379,0.305832937419455
1436.43932768162,0.305701049006977
1439.6969983112,0.306116159494344
1442.95036332666,0.306510914522894
1446.19942272798,0.30639402035975
1449.44417651517,0.30710337017813
1452.68462468823,0.307134008598703
1456.99852463033,0.306800409464411
1460.22892637041,0.306942922077067
1463.45502249637,0.306750593091494
1466.67681300819,0.306767788269521
1469.89429790587,0.306892742590202
1473.10747718943,0.307176685422451
1476.31635085885,0.307916265819481
1479.52091891415,0.307610217302026
1482.72118135531,0.308288582769087
1486.98150032154,0.307946190790522
1490.17171632972,0.308115501334164
1493.35762672377,0.308001259436172
1496.53923150369,0.308514700857608
1499.71653066948,0.308411098668657
1502.88952422114,0.30887808972839
1506.05821215866,0.30869674276402
1509.22259448206,0.308960869703424
1512.38267119132,0.308554552417946
1516.58940918168,0.308768531092971
1519.73943945797,0.310084771682365
1522.88516412012,0.309268260478474
1526.02658316814,0.309800393215369
1529.16369660203,0.309788167527993
1532.29650442179,0.310112470301926
1535.42500662741,0.310092199921021
1538.54920321891,0.310287869998228
1541.66909419627,0.309761624536687
1545.82225121076,0.310914024824308
1548.93209575515,0.31125747681105
1552.0376346854,0.310430546981335
1555.13886800153,0.311149529447593
1558.23579570352,0.311726192381637
1561.32841779137,0.312164521514558
1564.4167342651,0.312489085003085
1567.50074512469,0.312495810149494
1570.58045037016,0.31321132422143
1574.68002640879,0.312900661598723
1577.74968522127,0.312677801757974
1580.81503841963,0.313642390327326
1583.87608600385,0.313412129567318
1586.93282797394,0.313236062185378
1589.9852643299,0.313740400832628
1593.03339507173,0.313450286971006
1596.07722019942,0.314240507078684
1599.11673971298,0.314438971680262
1603.16273477575,0.314242150496848
1606.19220785634,0.315559197343197
1609.21737532279,0.314124515143204
1612.23823717512,0.314431362899645
1615.25479341331,0.31536057033178
1618.26704403737,0.316398598155794
1621.27498904729,0.314821752788265
1624.27862844309,0.314813938494117
1627.27796222475,0.315761656992373
1631.27037631165,0.315524892525309
1634.25966366034,0.314952434682801
1637.2446453949,0.314640975241858
1640.22532151532,0.313041565414056
1643.20169202161,0.312106854159948
1646.17375691377,0.312780055645043
1649.1415161918,0.311744727305809
1652.10496985569,0.312212873485524
1655.06411790546,0.313730860099899
1659.00295101649,0.317752897098545
1661.95205263328,0.327310963209466
1664.89684863594,0.341373419544511
1667.83733902446,0.358147886174438
1670.77352379886,0.387271698182106
1673.70540295912,0.428016811759868
1676.63297650524,0.472738492517802
1679.55624443724,0.530303899630883
1682.4752067551,0.588264584394274
1686.36045889027,0.66903753241049
1689.26937477516,0.723282283733564
1692.17398504592,0.772082049682174
1695.07428970255,0.80477633707814
1697.97028874504,0.814833421470122
1700.8619821734,0.82903738089421
##END=
