##TITLE=Column 1
##JCAMP-DX=4.24
##DATA TYPE=INFRARED SPECTRUM
##Method:,Column 1,Built-In Reference,,,Model Name,NIR-X-XX
##Host Date-Time:,27/10/20 @ 14:36:7,9/7/19 @ 16:39:9,,,GUI Version,2.4.4
##Header Version:,1,1,,,Tiva Version,2.1.0.67
##System Temp (C):,53.99,27.52,,,DLPC Version,2.0.0
##Detector Temp (C),0,0,,,UUID,00:00:00:00:00:00:00:00
##Humidity (%):,13.86,73.2,,,Main Board Version,D
##Lamp PD:,2725,2274
##Shift Vector Coefficients:,-6.85384978732833,0.0551332794684546,-0.000110731550088635
##Pixel to Wavelength Coefficients:,1790.66412099084,-0.917492857141292,-0.000239200785115314
##Serial Number:,925R021,925R021
##Scan Config Name:,Column 1,SystemTest
##Scan Config Type:,Column,Column
##Start wavelength (nm):,900,900
##End wavelength (nm):,1700,1700
##Pattern Pixel Width (nm):,7.03,7.03
##Exposure (ms):,0.635,0.635
##Digital Resolution:,228,228
##NPOINTS=228
##Num Repeats:,6,30
##PGA Gain:,64,64
##Total Measurement Time in sec:,1.8271262
##XUNITS=Wavelength(nm)
##YUNITS=Absorbance(AU)
##FIRSTX=901.630473432251
##LASTX=1700.8619821734
##PEAK TABLE=X+(Y..Y)
901.630473432251,0.499189335340812
905.531115772228,0.49928847405777
909.427452498074,0.504200357613815
913.319483609787,0.508621576472091
917.207209107368,0.519482402984448
921.090628990817,0.530267516255421
924.969743260134,0.538309473799249
930.13519799724,0.548262596719468
934.004265833582,0.54074978834847
937.869028055792,0.535998589481054
941.72948466387,0.526761934636325
945.585635657816,0.517642016798787
949.43748103763,0.511965761061626
953.285020803312,0.509989201958096
957.128254954862,0.506535261455755
960.967183492279,0.505678802356571
966.07905725352,0.504076689896484
969.907939357962,0.505297747499822
973.732515848273,0.505471334953189
977.552786724452,0.505930428995486
981.368751986498,0.504715906540205
985.180411634413,0.507670573080714
988.987765668195,0.505817689773927
992.790814087846,0.507149917690786
996.589556893364,0.506325601558737
1001.64784967874,0.507171277730577
1005.43654605128,0.506787325930041
1009.22093680969,0.506363487400247
1013.00102195397,0.507258301834884
1016.77680148412,0.505139296418362
1020.54827540013,0.506264902236348
1024.31544370202,0.505769611136125
1028.07830638977,0.504328098901214
1031.83686346339,0.505644709794234
1036.8415752729,0.503763541598807
1040.59008591354,0.503622097541714
1044.33429094005,0.503596334969057
1048.07419035243,0.502838869745501
1051.80978415068,0.503808388587061
1055.5410723348,0.502099324362793
1059.26805490478,0.502329144683635
1062.99073186063,0.502983313002983
1066.70910320235,0.502863905022711
1071.66023403599,0.502185341370038
1075.36855894474,0.502339610994505
1079.07257823935,0.50252555642276
1082.77229191983,0.502642025192516
1086.46769998618,0.502316953012724
1090.1588024384,0.501466428792443
1093.84559927648,0.500321880531915
1097.52809050043,0.501877012949942
1101.20627611025,0.500842719417035
1106.10382596803,0.500726696237669
1109.77196514487,0.500923188414523
1113.43579870759,0.500505686152369
1117.09532665617,0.500620451156377
1120.75054899062,0.501186122035818
1124.40146571093,0.501690761538547
1128.04807681712,0.502734120429377
1131.69038230917,0.501678401799079
1135.32838218709,0.501107753501727
1140.172351069,0.501866801671097
1143.80030451395,0.499497622368956
1147.42395234476,0.500316805849537
1151.04329456145,0.500496626241524
1154.658331164,0.500433664656992
1158.26906215241,0.499934637787756
1161.8754875267,0.500147844048469
1165.47760728685,0.500880670981211
1169.07542143287,0.500613608193916
1173.86580933892,0.502180285194168
1177.45357705197,0.501950899208071
1181.03703915088,0.502713688574399
1184.61619563566,0.502683533547757
1188.19104650631,0.501992836489219
1191.76159176283,0.501714333433231
1195.32783140522,0.501603145360185
1198.88976543347,0.501327497376098
1202.44739384759,0.500691001412989
1207.18420077777,0.499510667157624
1210.73178275892,0.500416214173771
1214.27505912594,0.499586304249467
1217.81402987882,0.499098027889507
1221.34869501757,0.499231313334827
1224.87905454219,0.500523497880553
1228.40510845267,0.49902103338094
1231.92685674903,0.498771361349817
1235.44429943125,0.500108854366574
1240.12752538557,0.499281297579649
1243.63492163481,0.499545184855069
1247.13801226993,0.499596171112799
1250.63679729091,0.498766433580911
1254.13127669776,0.498912556587581
1257.62145049048,0.498611574950458
1261.10731866907,0.498878674080871
1264.58888123353,0.499109066135123
1268.06613818385,0.498912824856997
1272.6957831623,0.499667865022304
1276.16299367965,0.500142254786341
1279.62589858286,0.500254186049482
1283.08449787195,0.500044849271665
1286.5387915469,0.500587927283689
1289.98877960772,0.500810316282865
1293.43446205441,0.501221409361884
1296.87583888696,0.501807017738958
1300.31291010539,0.501775077279243
1304.88897410797,0.502292911458147
1308.31599889342,0.502523796868472
1311.73871806474,0.50238655005475
1315.15713162192,0.502498864988016
1318.57123956497,0.502883166300019
1321.98104189389,0.50363729750669
1325.38653860868,0.503428910023581
1328.78772970934,0.503489080422763
1332.18461519586,0.504055346959731
1336.70709822258,0.503875942801671
1340.09393727613,0.504221877675293
1343.47647071555,0.504339122068854
1346.85469854083,0.505128729896969
1350.22862075199,0.505357337491383
1353.59823734901,0.506054303805989
1356.9635483319,0.50626674856023
1360.32455370065,0.506098469308628
1363.68125345528,0.506315167934325
1368.15015550613,0.50703065110925
1371.49680882778,0.507828695374202
1374.8391565353,0.507547513293437
1378.17719862868,0.507091735344182
1381.51093510794,0.507847733750406
1384.84036597306,0.508203902204149
1388.16549122405,0.507604086442491
1391.48631086091,0.509296521505797
1394.80282488363,0.508962270371855
1399.21814595862,0.5102830915028
1402.52461354837,0.511856545141549
1405.82677552399,0.512959153185142
1409.12463188548,0.513468610818381
1412.41818263283,0.514282100756388
1415.70742776605,0.514681911338835
1418.99236728514,0.514652268213966
1422.2730011901,0.514578651807169
1425.54932948093,0.514198193621206
1429.91106958005,0.512724485584875
1433.1773514379,0.51259917122518
1436.43932768162,0.512876612562536
1439.6969983112,0.51138962237268
1442.95036332666,0.511642554670349
1446.19942272798,0.511097011557684
1449.44417651517,0.511260520835473
1452.68462468823,0.510296309145475
1456.99852463033,0.510378806954572
1460.22892637041,0.510831359428701
1463.45502249637,0.51114395713099
1466.67681300819,0.510942694224293
1469.89429790587,0.510110107008808
1473.10747718943,0.510258854551923
1476.31635085885,0.509592292930826
1479.52091891415,0.509086677230879
1482.72118135531,0.509344033804712
1486.98150032154,0.508569114004773
1490.17171632972,0.509219355005884
1493.35762672377,0.50895978388856
1496.53923150369,0.507878043606817
1499.71653066948,0.508114812594845
1502.88952422114,0.50800769422696
1506.05821215866,0.508017950223912
1509.22259448206,0.508172745171157
1512.38267119132,0.507586738485229
1516.58940918168,0.507412564915013
1519.73943945797,0.507103910851389
1522.88516412012,0.507763658823425
1526.02658316814,0.507709814466639
1529.16369660203,0.507036104359786
1532.29650442179,0.507974126024531
1535.42500662741,0.507078353079847
1538.54920321891,0.508055343590267
1541.66909419627,0.506406301845231
1545.82225121076,0.506951171519606
1548.93209575515,0.506933128242678
1552.0376346854,0.506970725657557
1555.13886800153,0.506411831143795
1558.23579570352,0.507080155516897
1561.32841779137,0.507520764361039
1564.4167342651,0.507357787262705
1567.50074512469,0.506253260188241
1570.58045037016,0.50656665174271
1574.68002640879,0.506542196716458
1577.74968522127,0.507729522491314
1580.81503841963,0.506883114012249
1583.87608600385,0.507843575849856
1586.93282797394,0.508635036895256
1589.9852643299,0.507502040627543
1593.03339507173,0.508767482628271
1596.07722019942,0.509973436104405
1599.11673971298,0.509147085722094
1603.16273477575,0.510340919409296
1606.19220785634,0.508099322825724
1609.21737532279,0.510655422806708
1612.23823717512,0.509877078527986
1615.25479341331,0.5107832408664
1618.26704403737,0.510735116748731
1621.27498904729,0.511688779969646
1624.27862844309,0.512226126363906
1627.27796222475,0.513396751184837
1631.27037631165,0.513277310698224
1634.25966366034,0.513266943955673
1637.2446453949,0.515353394774531
1640.22532151532,0.51757572591491
1643.20169202161,0.519636759715783
1646.17375691377,0.519431798955368
1649.1415161918,0.521988500703415
1652.10496985569,0.523056849912109
1655.06411790546,0.52348154644249
1659.00295101649,0.515462637417126
1661.95205263328,0.50549376019693
1664.89684863594,0.487009486143753
1667.83733902446,0.459569275612545
1670.77352379886,0.426325700787673
1673.70540295912,0.382247159642746
1676.63297650524,0.338079626127736
1679.55624443724,0.288706028525962
1682.4752067551,0.241580806772412
1686.36045889027,0.185464728500812
1689.26937477516,0.149067660347317
1692.17398504592,0.123715410761979
1695.07428970255,0.105889391786998
1697.97028874504,0.0911352093657582
1700.8619821734,0.0966481412057896
##END=
