##TITLE=Column 1
##JCAMP-DX=4.24
##DATA TYPE=INFRARED SPECTRUM
##Method:,Column 1,Built-In Reference,,,Model Name,NIR-X-XX
##Host Date-Time:,27/10/20 @ 14:36:14,9/7/19 @ 16:39:9,,,GUI Version,2.4.4
##Header Version:,1,1,,,Tiva Version,2.1.0.67
##System Temp (C):,53.99,27.52,,,DLPC Version,2.0.0
##Detector Temp (C),0,0,,,UUID,00:00:00:00:00:00:00:00
##Humidity (%):,13.86,73.2,,,Main Board Version,D
##Lamp PD:,2725,2274
##Shift Vector Coefficients:,-6.85384978732833,0.0551332794684546,-0.000110731550088635
##Pixel to Wavelength Coefficients:,1790.66412099084,-0.917492857141292,-0.000239200785115314
##Serial Number:,925R021,925R021
##Scan Config Name:,Column 1,SystemTest
##Scan Config Type:,Column,Column
##Start wavelength (nm):,900,900
##End wavelength (nm):,1700,1700
##Pattern Pixel Width (nm):,7.03,7.03
##Exposure (ms):,0.635,0.635
##Digital Resolution:,228,228
##NPOINTS=228
##Num Repeats:,6,30
##PGA Gain:,64,64
##Total Measurement Time in sec:,1.78619
##XUNITS=Wavelength(nm)
##YUNITS=Reflectance(AU)
##FIRSTX=901.630473432251
##LASTX=1700.8619821734
##PEAK TABLE=X+(Y..Y)
901.630473432251,0.356796663109144
905.531115772228,0.351284362325372
909.427452498074,0.351993172005221
913.319483609787,0.346793019761932
917.207209107368,0.339500998840507
921.090628990817,0.330694503408835
924.969743260134,0.324005198683738
930.13519799724,0.317301754685971
934.004265833582,0.319111559992576
937.869028055792,0.324445191123058
941.72948466387,0.331309633588648
945.585635657816,0.334791346494858
949.43748103763,0.338953252800231
953.285020803312,0.341855134878068
957.128254954862,0.34166695853459
960.967183492279,0.340922437409108
966.07905725352,0.341005759467235
969.907939357962,0.339677528726954
973.732515848273,0.338420343615235
977.552786724452,0.338399603883662
981.368751986498,0.336682387251875
985.180411634413,0.336840806633185
988.987765668195,0.335634056417731
992.790814087846,0.335972106758652
996.589556893364,0.335997765209806
1001.64784967874,0.335274113021876
1005.43654605128,0.33663835613815
1009.22093680969,0.335715748710352
1013.00102195397,0.336735347344603
1016.77680148412,0.336347167169629
1020.54827540013,0.336470682757496
1024.31544370202,0.336770751044234
1028.07830638977,0.336940505351533
1031.83686346339,0.33719007087823
1036.8415752729,0.337224445677199
1040.59008591354,0.337437493426651
1044.33429094005,0.338151434025235
1048.07419035243,0.336645080526734
1051.80978415068,0.337632965563518
1055.5410723348,0.337406028686362
1059.26805490478,0.336868076682339
1062.99073186063,0.33749104290902
1066.70910320235,0.339147536520084
1071.66023403599,0.338235222626797
1075.36855894474,0.338414094566648
1079.07257823935,0.339076850236971
1082.77229191983,0.339690267828363
1086.46769998618,0.338782781085915
1090.1588024384,0.340126407908597
1093.84559927648,0.341114694823127
1097.52809050043,0.342436307792168
1101.20627611025,0.342374861281467
1106.10382596803,0.343449685251071
1109.77196514487,0.344643511730205
1113.43579870759,0.344118969848676
1117.09532665617,0.344921117311388
1120.75054899062,0.345969264073137
1124.40146571093,0.345605495183284
1128.04807681712,0.345874676100927
1131.69038230917,0.345862048615437
1135.32838218709,0.347339901691547
1140.172351069,0.34785574839637
1143.80030451395,0.349730264627957
1147.42395234476,0.349152792880293
1151.04329456145,0.350076179952115
1154.658331164,0.350131685365297
1158.26906215241,0.349199142958682
1161.8754875267,0.349907023490302
1165.47760728685,0.350283054979149
1169.07542143287,0.349805989017343
1173.86580933892,0.34963152596228
1177.45357705197,0.348799990665946
1181.03703915088,0.34942522106882
1184.61619563566,0.349425601750547
1188.19104650631,0.349180847849221
1191.76159176283,0.34975982031001
1195.32783140522,0.350222275907634
1198.88976543347,0.350108622828672
1202.44739384759,0.350438960043495
1207.18420077777,0.350178165369698
1210.73178275892,0.349543915327453
1214.27505912594,0.349762787388921
1217.81402987882,0.348905927991272
1221.34869501757,0.349658183728116
1224.87905454219,0.348926918911824
1228.40510845267,0.348249531674369
1231.92685674903,0.348104358413637
1235.44429943125,0.348043647972232
1240.12752538557,0.347286427298351
1243.63492163481,0.347281790267569
1247.13801226993,0.346543996587497
1250.63679729091,0.345819385769068
1254.13127669776,0.346051758460518
1257.62145049048,0.346638205456222
1261.10731866907,0.345829122174862
1264.58888123353,0.345522007100646
1268.06613818385,0.345075250098845
1272.6957831623,0.34462035496007
1276.16299367965,0.344536500835982
1279.62589858286,0.344321621806726
1283.08449787195,0.343550672319543
1286.5387915469,0.343969506554987
1289.98877960772,0.34316529838078
1293.43446205441,0.343564285448742
1296.87583888696,0.343195976981152
1300.31291010539,0.343397976125426
1304.88897410797,0.343505167568754
1308.31599889342,0.342870018116532
1311.73871806474,0.343335021491553
1315.15713162192,0.342773174171869
1318.57123956497,0.342898012284869
1321.98104189389,0.343547400848824
1325.38653860868,0.343475772729093
1328.78772970934,0.342927821734216
1332.18461519586,0.34328587789121
1336.70709822258,0.343466846005613
1340.09393727613,0.342660846843791
1343.47647071555,0.342801968479412
1346.85469854083,0.342557554874272
1350.22862075199,0.34211389208587
1353.59823734901,0.342419035342086
1356.9635483319,0.342063740422234
1360.32455370065,0.341935029954826
1363.68125345528,0.341840081489856
1368.15015550613,0.341942258203377
1371.49680882778,0.341712487007846
1374.8391565353,0.34179697292873
1378.17719862868,0.341959165134402
1381.51093510794,0.341432124188841
1384.84036597306,0.341683363929435
1388.16549122405,0.341218291747698
1391.48631086091,0.340928309687118
1394.80282488363,0.340520897815072
1399.21814595862,0.33950189423142
1402.52461354837,0.338949119933443
1405.82677552399,0.337860331664934
1409.12463188548,0.337613918806959
1412.41818263283,0.337212488889598
1415.70742776605,0.337855795734803
1418.99236728514,0.337401849703934
1422.2730011901,0.337022030526148
1425.54932948093,0.337833774662249
1429.91106958005,0.337805200580103
1433.1773514379,0.338140962775378
1436.43932768162,0.33887840301993
1439.6969983112,0.339100652857469
1442.95036332666,0.339388961175846
1446.19942272798,0.339800416852718
1449.44417651517,0.339432568781967
1452.68462468823,0.34019529257451
1456.99852463033,0.340043837808869
1460.22892637041,0.33987435042271
1463.45502249637,0.340755484719172
1466.67681300819,0.340656101561775
1469.89429790587,0.340123892208751
1473.10747718943,0.34065204804252
1476.31635085885,0.340892379056014
1479.52091891415,0.341058361886262
1482.72118135531,0.341019635016155
1486.98150032154,0.341419889377006
1490.17171632972,0.341133764417822
1493.35762672377,0.341176651282091
1496.53923150369,0.341625450874228
1499.71653066948,0.341385156152793
1502.88952422114,0.341700507574464
1506.05821215866,0.342245626545046
1509.22259448206,0.341875139069901
1512.38267119132,0.341896859506251
1516.58940918168,0.341724955340411
1519.73943945797,0.341330733864676
1522.88516412012,0.342081418090892
1526.02658316814,0.342054050451531
1529.16369660203,0.34171107881137
1532.29650442179,0.342106515392015
1535.42500662741,0.342444585615439
1538.54920321891,0.342763996623511
1541.66909419627,0.342197902576985
1545.82225121076,0.343060380125567
1548.93209575515,0.342605903429942
1552.0376346854,0.34383672811406
1555.13886800153,0.343675953917804
1558.23579570352,0.343895875976116
1561.32841779137,0.344368545919244
1564.4167342651,0.344195938262837
1567.50074512469,0.343839835324087
1570.58045037016,0.34518856986974
1574.68002640879,0.345214449595461
1577.74968522127,0.345069906574923
1580.81503841963,0.344888987576088
1583.87608600385,0.344671453679444
1586.93282797394,0.345024391870117
1589.9852643299,0.344655224466726
1593.03339507173,0.344959100251941
1596.07722019942,0.344852824486064
1599.11673971298,0.344793834539468
1603.16273477575,0.345118609723352
1606.19220785634,0.34539718033741
1609.21737532279,0.345850148232313
1612.23823717512,0.344782211000979
1615.25479341331,0.344746366876885
1618.26704403737,0.344581624823997
1621.27498904729,0.34400991383037
1624.27862844309,0.34533914596852
1627.27796222475,0.344286395543446
1631.27037631165,0.342998701478801
1634.25966366034,0.342055262663009
1637.2446453949,0.340954217961082
1640.22532151532,0.339163879713617
1643.20169202161,0.334110617728463
1646.17375691377,0.333211304729829
1649.1415161918,0.329276151198581
1652.10496985569,0.326446881840439
1655.06411790546,0.325204581313408
1659.00295101649,0.328975341988324
1661.95205263328,0.338574597892402
1664.89684863594,0.353237388635619
1667.83733902446,0.377855160781327
1670.77352379886,0.408219778347159
1673.70540295912,0.454363599612465
1676.63297650524,0.506012552878799
1679.55624443724,0.567980568783828
1682.4752067551,0.632569456232671
1686.36045889027,0.723770526643903
1689.26937477516,0.789174596297099
1692.17398504592,0.837869984011231
1695.07428970255,0.876330241779277
1697.97028874504,0.885034373347435
1700.8619821734,0.885872220864891
##END=
