##TITLE=Column 1
##JCAMP-DX=4.24
##DATA TYPE=INFRARED SPECTRUM
##Method:,Column 1,Built-In Reference,,,Model Name,NIR-X-XX
##Host Date-Time:,27/10/20 @ 14:36:33,9/7/19 @ 16:39:9,,,GUI Version,2.4.4
##Header Version:,1,1,,,Tiva Version,2.1.0.67
##System Temp (C):,54.01,27.52,,,DLPC Version,2.0.0
##Detector Temp (C),0,0,,,UUID,00:00:00:00:00:00:00:00
##Humidity (%):,13.86,73.2,,,Main Board Version,D
##Lamp PD:,2725,2274
##Shift Vector Coefficients:,-6.85384978732833,0.0551332794684546,-0.000110731550088635
##Pixel to Wavelength Coefficients:,1790.66412099084,-0.917492857141292,-0.000239200785115314
##Serial Number:,925R021,925R021
##Scan Config Name:,Column 1,SystemTest
##Scan Config Type:,Column,Column
##Start wavelength (nm):,900,900
##End wavelength (nm):,1700,1700
##Pattern Pixel Width (nm):,7.03,7.03
##Exposure (ms):,0.635,0.635
##Digital Resolution:,228,228
##NPOINTS=228
##Num Repeats:,6,30
##PGA Gain:,64,64
##Total Measurement Time in sec:,1.8261246
##XUNITS=Wavelength(nm)
##YUNITS=Intensity
##FIRSTX=901.630473432251
##LASTX=1700.8619821734
##PEAK TABLE=X+(Y..Y)
901.630473432251,31811
905.531115772228,34518
909.427452498074,37340
913.319483609787,39494
917.207209107368,43102
921.090628990817,47183
924.969743260134,51666
930.13519799724,59886
934.004265833582,66578
937.869028055792,72766
941.72948466387,79058
945.585635657816,83761
949.43748103763,89018
953.285020803312,93125
957.128254954862,97272
960.967183492279,100988
966.07905725352,105454
969.907939357962,109056
973.732515848273,111952
977.552786724452,115023
981.368751986498,118090
985.180411634413,120336
988.987765668195,122372
992.790814087846,124651
996.589556893364,126034
1001.64784967874,128130
1005.43654605128,129122
1009.22093680969,129962
1013.00102195397,130442
1016.77680148412,130850
1020.54827540013,130773
1024.31544370202,130870
1028.07830638977,130765
1031.83686346339,130384
1036.8415752729,129832
1040.59008591354,129617
1044.33429094005,129289
1048.07419035243,128905
1051.80978415068,128584
1055.5410723348,127601
1059.26805490478,127653
1062.99073186063,127480
1066.70910320235,126740
1071.66023403599,127130
1075.36855894474,127269
1079.07257823935,127735
1082.77229191983,128144
1086.46769998618,128941
1090.1588024384,129379
1093.84559927648,130326
1097.52809050043,130862
1101.20627611025,131540
1106.10382596803,133010
1109.77196514487,133998
1113.43579870759,135240
1117.09532665617,136305
1120.75054899062,137166
1124.40146571093,137939
1128.04807681712,138840
1131.69038230917,140329
1135.32838218709,141769
1140.172351069,143563
1143.80030451395,144681
1147.42395234476,145953
1151.04329456145,147132
1154.658331164,149363
1158.26906215241,149679
1161.8754875267,151402
1165.47760728685,153171
1169.07542143287,154096
1173.86580933892,156438
1177.45357705197,158069
1181.03703915088,159970
1184.61619563566,161488
1188.19104650631,164147
1191.76159176283,166189
1195.32783140522,168117
1198.88976543347,170753
1202.44739384759,173128
1207.18420077777,176144
1210.73178275892,179003
1214.27505912594,181654
1217.81402987882,183846
1221.34869501757,186003
1224.87905454219,188390
1228.40510845267,190788
1231.92685674903,192885
1235.44429943125,195112
1240.12752538557,198245
1243.63492163481,199407
1247.13801226993,201386
1250.63679729091,203050
1254.13127669776,204738
1257.62145049048,207777
1261.10731866907,211072
1264.58888123353,214034
1268.06613818385,216655
1272.6957831623,220235
1276.16299367965,222823
1279.62589858286,224751
1283.08449787195,226441
1286.5387915469,228288
1289.98877960772,229435
1293.43446205441,231358
1296.87583888696,232564
1300.31291010539,232967
1304.88897410797,234580
1308.31599889342,235332
1311.73871806474,235677
1315.15713162192,236106
1318.57123956497,236618
1321.98104189389,236578
1325.38653860868,236495
1328.78772970934,236679
1332.18461519586,236249
1336.70709822258,236022
1340.09393727613,235615
1343.47647071555,234567
1346.85469854083,233671
1350.22862075199,232514
1353.59823734901,231299
1356.9635483319,229383
1360.32455370065,227809
1363.68125345528,226865
1368.15015550613,225729
1371.49680882778,224886
1374.8391565353,222661
1378.17719862868,220412
1381.51093510794,217808
1384.84036597306,215354
1388.16549122405,213134
1391.48631086091,210962
1394.80282488363,209630
1399.21814595862,207742
1402.52461354837,206715
1405.82677552399,206211
1409.12463188548,205463
1412.41818263283,205105
1415.70742776605,204645
1418.99236728514,204375
1422.2730011901,204614
1425.54932948093,204687
1429.91106958005,205030
1433.1773514379,205341
1436.43932768162,205813
1439.6969983112,205861
1442.95036332666,205811
1446.19942272798,206423
1449.44417651517,206347
1452.68462468823,206521
1456.99852463033,205630
1460.22892637041,205384
1463.45502249637,204606
1466.67681300819,204016
1469.89429790587,203441
1473.10747718943,202577
1476.31635085885,201626
1479.52091891415,201024
1482.72118135531,200622
1486.98150032154,198940
1490.17171632972,197593
1493.35762672377,196568
1496.53923150369,195272
1499.71653066948,194284
1502.88952422114,192629
1506.05821215866,191861
1509.22259448206,190739
1512.38267119132,189063
1516.58940918168,186748
1519.73943945797,184986
1522.88516412012,183467
1526.02658316814,181839
1529.16369660203,180063
1532.29650442179,178253
1535.42500662741,176447
1538.54920321891,174885
1541.66909419627,172762
1545.82225121076,169981
1548.93209575515,168106
1552.0376346854,165576
1555.13886800153,163922
1558.23579570352,161396
1561.32841779137,159182
1564.4167342651,157225
1567.50074512469,154585
1570.58045037016,152086
1574.68002640879,148604
1577.74968522127,145971
1580.81503841963,142990
1583.87608600385,140056
1586.93282797394,137704
1589.9852643299,134279
1593.03339507173,131665
1596.07722019942,128983
1599.11673971298,126203
1603.16273477575,122493
1606.19220785634,119937
1609.21737532279,116536
1612.23823717512,114431
1615.25479341331,111593
1618.26704403737,108888
1621.27498904729,106204
1624.27862844309,103259
1627.27796222475,100426
1631.27037631165,96590
1634.25966366034,93592
1637.2446453949,90371
1640.22532151532,87037
1643.20169202161,83640
1646.17375691377,79864
1649.1415161918,76491
1652.10496985569,72953
1655.06411790546,69637
1659.00295101649,66222
1661.95205263328,64254
1664.89684863594,62885
1667.83733902446,61488
1670.77352379886,59608
1673.70540295912,57566
1676.63297650524,55311
1679.55624443724,52678
1682.4752067551,49533
1686.36045889027,45469
1689.26937477516,42471
1692.17398504592,38399
1695.07428970255,34190
1697.97028874504,29946
1700.8619821734,26020
##END=
