##TITLE=Column 1
##JCAMP-DX=4.24
##DATA TYPE=INFRARED SPECTRUM
##Method:,Column 1,Built-In Reference,,,Model Name,NIR-X-XX
##Host Date-Time:,27/10/20 @ 14:36:40,9/7/19 @ 16:39:9,,,GUI Version,2.4.4
##Header Version:,1,1,,,Tiva Version,2.1.0.67
##System Temp (C):,54.04,27.52,,,DLPC Version,2.0.0
##Detector Temp (C),0,0,,,UUID,00:00:00:00:00:00:00:00
##Humidity (%):,13.86,73.2,,,Main Board Version,D
##Lamp PD:,2726,2274
##Shift Vector Coefficients:,-6.85384978732833,0.0551332794684546,-0.000110731550088635
##Pixel to Wavelength Coefficients:,1790.66412099084,-0.917492857141292,-0.000239200785115314
##Serial Number:,925R021,925R021
##Scan Config Name:,Column 1,SystemTest
##Scan Config Type:,Column,Column
##Start wavelength (nm):,900,900
##End wavelength (nm):,1700,1700
##Pattern Pixel Width (nm):,7.03,7.03
##Exposure (ms):,0.635,0.635
##Digital Resolution:,228,228
##NPOINTS=228
##Num Repeats:,6,30
##PGA Gain:,64,64
##Total Measurement Time in sec:,1.8650689
##XUNITS=Wavelength(nm)
##YUNITS=Reflectance(AU)
##FIRSTX=901.630473432251
##LASTX=1700.8619821734
##PEAK TABLE=X+(Y..Y)
901.630473432251,0.333405136540326
905.531115772228,0.332347904461469
909.427452498074,0.326932088228403
913.319483609787,0.32396471358681
917.207209107368,0.319894388332425
921.090628990817,0.308886696800939
924.969743260134,0.301661919641623
930.13519799724,0.299427138256334
934.004265833582,0.299546370750193
937.869028055792,0.3062488999824
941.72948466387,0.309878239268306
945.585635657816,0.315801351975841
949.43748103763,0.318302624078894
953.285020803312,0.319869745567915
957.128254954862,0.321483495664965
960.967183492279,0.321992208998085
966.07905725352,0.321291791435513
969.907939357962,0.320955504206828
973.732515848273,0.320357169531049
977.552786724452,0.318163225764784
981.368751986498,0.319596431996427
985.180411634413,0.318975310609293
988.987765668195,0.31748969844304
992.790814087846,0.317801794200489
996.589556893364,0.316972643423542
1001.64784967874,0.316548081329442
1005.43654605128,0.317351609104053
1009.22093680969,0.317108139905974
1013.00102195397,0.316966032831056
1016.77680148412,0.316927923410938
1020.54827540013,0.317164522981892
1024.31544370202,0.316458450607619
1028.07830638977,0.316173997090888
1031.83686346339,0.316645587492021
1036.8415752729,0.316777654237805
1040.59008591354,0.316665710543174
1044.33429094005,0.316698080363038
1048.07419035243,0.317191073449048
1051.80978415068,0.316766393353592
1055.5410723348,0.316389855696852
1059.26805490478,0.316321926083349
1062.99073186063,0.315617523106258
1066.70910320235,0.315299174180562
1071.66023403599,0.316879189900001
1075.36855894474,0.315949484933486
1079.07257823935,0.316258992110616
1082.77229191983,0.316224615961935
1086.46769998618,0.31524672159212
1090.1588024384,0.315419190932187
1093.84559927648,0.315747377487926
1097.52809050043,0.316282110679689
1101.20627611025,0.316117049237778
1106.10382596803,0.31719479294537
1109.77196514487,0.317139387829912
1113.43579870759,0.317567905216629
1117.09532665617,0.317871440253938
1120.75054899062,0.318124893774991
1124.40146571093,0.318005333664654
1128.04807681712,0.318622022715314
1131.69038230917,0.319403552716996
1135.32838218709,0.319992711465126
1140.172351069,0.321348121768605
1143.80030451395,0.321273448888605
1147.42395234476,0.322185741583354
1151.04329456145,0.322686975739615
1154.658331164,0.322884220567802
1158.26906215241,0.322386814875378
1161.8754875267,0.321751620476805
1165.47760728685,0.322827729314826
1169.07542143287,0.322518832823548
1173.86580933892,0.32259371116669
1177.45357705197,0.321974308016008
1181.03703915088,0.32159938485198
1184.61619563566,0.322050510576222
1188.19104650631,0.321675578586618
1191.76159176283,0.322270735883884
1195.32783140522,0.322161887139843
1198.88976543347,0.322177296293822
1202.44739384759,0.322960506965427
1207.18420077777,0.32239522930251
1210.73178275892,0.321891891424709
1214.27505912594,0.322592091548203
1217.81402987882,0.322156894438383
1221.34869501757,0.321998740108271
1224.87905454219,0.322098250910642
1228.40510845267,0.321217905920025
1231.92685674903,0.32170075056673
1235.44429943125,0.321600552329586
1240.12752538557,0.320871739327218
1243.63492163481,0.319972912215169
1247.13801226993,0.320143128731466
1250.63679729091,0.320025402588384
1254.13127669776,0.319908608312722
1257.62145049048,0.320027965370541
1261.10731866907,0.319784388686265
1264.58888123353,0.319341618382079
1268.06613818385,0.319308740161736
1272.6957831623,0.318506034880631
1276.16299367965,0.318324881246332
1279.62589858286,0.317786452982672
1283.08449787195,0.317983801360382
1286.5387915469,0.317535481212898
1289.98877960772,0.317140687947945
1293.43446205441,0.316436351855884
1296.87583888696,0.316786336518663
1300.31291010539,0.316298705392796
1304.88897410797,0.316245278902393
1308.31599889342,0.316104177221619
1311.73871806474,0.31593101925799
1315.15713162192,0.31568780983593
1318.57123956497,0.316244118084907
1321.98104189389,0.315913442209269
1325.38653860868,0.314974544862661
1328.78772970934,0.315611819796545
1332.18461519586,0.315181001967328
1336.70709822258,0.315447291162815
1340.09393727613,0.315240261917926
1343.47647071555,0.314470036753255
1346.85469854083,0.314065094393637
1350.22862075199,0.314506341780767
1353.59823734901,0.313587990280697
1356.9635483319,0.314038499880505
1360.32455370065,0.313339554839301
1363.68125345528,0.312847985152634
1368.15015550613,0.312748173190523
1371.49680882778,0.312729887069239
1374.8391565353,0.311940927526726
1378.17719862868,0.311850155415463
1381.51093510794,0.311746706579368
1384.84036597306,0.31138342885287
1388.16549122405,0.311715017293805
1391.48631086091,0.310935627058901
1394.80282488363,0.310631462503152
1399.21814595862,0.310040074991102
1402.52461354837,0.308976592222829
1405.82677552399,0.307886984602614
1409.12463188548,0.307234604666253
1412.41818263283,0.307351787596659
1415.70742776605,0.306331060496155
1418.99236728514,0.306516352213127
1422.2730011901,0.306683222236745
1425.54932948093,0.30684827242607
1429.91106958005,0.307965949482238
1433.1773514379,0.308236025692995
1436.43932768162,0.307719376819476
1439.6969983112,0.309007572332566
1442.95036332666,0.308562248762439
1446.19942272798,0.310006937848801
1449.44417651517,0.309585081205078
1452.68462468823,0.309709247249144
1456.99852463033,0.309807139926139
1460.22892637041,0.310298553112776
1463.45502249637,0.309663535339439
1466.67681300819,0.310158977661774
1469.89429790587,0.309729043096093
1473.10747718943,0.310105853883041
1476.31635085885,0.310104332132656
1479.52091891415,0.310655863017887
1482.72118135531,0.310963825476565
1486.98150032154,0.310891584913391
1490.17171632972,0.310615913490014
1493.35762672377,0.310656826681616
1496.53923150369,0.310690028896149
1499.71653066948,0.310712952594252
1502.88952422114,0.310981368054914
1506.05821215866,0.311468556400965
1509.22259448206,0.31194252837026
1512.38267119132,0.311879649126181
1516.58940918168,0.312125504397814
1519.73943945797,0.312220828351654
1522.88516412012,0.312315043283792
1526.02658316814,0.312121363590923
1529.16369660203,0.312770846791559
1532.29650442179,0.312806115338991
1535.42500662741,0.313301169239222
1538.54920321891,0.313726886508981
1541.66909419627,0.3139705236531
1545.82225121076,0.314075493444235
1548.93209575515,0.313612491692432
1552.0376346854,0.315446237041732
1555.13886800153,0.314856011706245
1558.23579570352,0.314691964546312
1561.32841779137,0.315515008423972
1564.4167342651,0.315438559724923
1567.50074512469,0.316360331086916
1570.58045037016,0.316472834786237
1574.68002640879,0.316638971677166
1577.74968522127,0.316720011555152
1580.81503841963,0.316819359012407
1583.87608600385,0.318138161290533
1586.93282797394,0.317592150151685
1589.9852643299,0.317578932792776
1593.03339507173,0.317537941881992
1596.07722019942,0.318127447102323
1599.11673971298,0.318218490082398
1603.16273477575,0.318843798505712
1606.19220785634,0.319092071709181
1609.21737532279,0.318593686740065
1612.23823717512,0.318531455439242
1615.25479341331,0.319062242939402
1618.26704403737,0.320097128580141
1621.27498904729,0.320115853482809
1624.27862844309,0.318283182595219
1627.27796222475,0.31953417592331
1631.27037631165,0.319039094312981
1634.25966366034,0.318262877004585
1637.2446453949,0.316579845758012
1640.22532151532,0.315512873832659
1643.20169202161,0.313634253434876
1646.17375691377,0.313519548982281
1649.1415161918,0.311164768850545
1652.10496985569,0.310550536231485
1655.06411790546,0.30956974567334
1659.00295101649,0.312751590136795
1661.95205263328,0.322485672028101
1664.89684863594,0.337941857115898
1667.83733902446,0.357380706240818
1670.77352379886,0.387350816439557
1673.70540295912,0.427654369175652
1676.63297650524,0.474435485835384
1679.55624443724,0.530724654311779
1682.4752067551,0.589894188875686
1686.36045889027,0.676164298162343
1689.26937477516,0.734397653607079
1692.17398504592,0.776001247903911
1695.07428970255,0.802292459494565
1697.97028874504,0.819513484928609
1700.8619821734,0.825128267774249
##END=
