##TITLE=Column 1
##JCAMP-DX=4.24
##DATA TYPE=INFRARED SPECTRUM
##Method:,Column 1,Built-In Reference,,,Model Name,NIR-X-XX
##Host Date-Time:,27/10/20 @ 14:36:7,9/7/19 @ 16:39:9,,,GUI Version,2.4.4
##Header Version:,1,1,,,Tiva Version,2.1.0.67
##System Temp (C):,53.99,27.52,,,DLPC Version,2.0.0
##Detector Temp (C),0,0,,,UUID,00:00:00:00:00:00:00:00
##Humidity (%):,13.86,73.2,,,Main Board Version,D
##Lamp PD:,2725,2274
##Shift Vector Coefficients:,-6.85384978732833,0.0551332794684546,-0.000110731550088635
##Pixel to Wavelength Coefficients:,1790.66412099084,-0.917492857141292,-0.000239200785115314
##Serial Number:,925R021,925R021
##Scan Config Name:,Column 1,SystemTest
##Scan Config Type:,Column,Column
##Start wavelength (nm):,900,900
##End wavelength (nm):,1700,1700
##Pattern Pixel Width (nm):,7.03,7.03
##Exposure (ms):,0.635,0.635
##Digital Resolution:,228,228
##NPOINTS=228
##Num Repeats:,6,30
##PGA Gain:,64,64
##Total Measurement Time in sec:,1.8271262
##XUNITS=Wavelength(nm)
##YUNITS=Intensity
##FIRSTX=901.630473432251
##LASTX=1700.8619821734
##PEAK TABLE=X+(Y..Y)
901.630473432251,32357
905.531115772228,35143
909.427452498074,37428
913.319483609787,40238
917.207209107368,43287
921.090628990817,47241
924.969743260134,52351
930.13519799724,59571
934.004265833582,66704
937.869028055792,72767
941.72948466387,78996
945.585635657816,84760
949.43748103763,89591
953.285020803312,93574
957.128254954862,97834
960.967183492279,101516
966.07905725352,106501
969.907939357962,109643
973.732515848273,112888
977.552786724452,115919
981.368751986498,119058
985.180411634413,120882
988.987765668195,123729
992.790814087846,125348
996.589556893364,127184
1001.64784967874,128964
1005.43654605128,130055
1009.22093680969,130847
1013.00102195397,131116
1016.77680148412,132137
1020.54827540013,131905
1024.31544370202,131936
1028.07830638977,132163
1031.83686346339,131546
1036.8415752729,131675
1040.59008591354,131197
1044.33429094005,130618
1048.07419035243,130502
1051.80978415068,129869
1055.5410723348,130022
1059.26805490478,129650
1062.99073186063,129295
1066.70910320235,129225
1071.66023403599,129445
1075.36855894474,129734
1079.07257823935,130151
1082.77229191983,130663
1086.46769998618,131372
1090.1588024384,132240
1093.84559927648,133536
1097.52809050043,133883
1101.20627611025,135091
1106.10382596803,136561
1109.77196514487,137734
1113.43579870759,139056
1117.09532665617,140169
1120.75054899062,141020
1124.40146571093,141977
1128.04807681712,142739
1131.69038230917,144119
1135.32838218709,145409
1140.172351069,146771
1143.80030451395,148769
1147.42395234476,149661
1151.04329456145,150926
1154.658331164,152336
1158.26906215241,153960
1161.8754875267,155380
1165.47760728685,156648
1169.07542143287,158370
1173.86580933892,160023
1177.45357705197,161890
1181.03703915088,163477
1184.61619563566,165457
1188.19104650631,167717
1191.76159176283,169963
1195.32783140522,172148
1198.88976543347,174577
1202.44739384759,177117
1207.18420077777,180712
1210.73178275892,182766
1214.27505912594,185544
1217.81402987882,188207
1221.34869501757,190592
1224.87905454219,192496
1228.40510845267,195582
1231.92685674903,197947
1235.44429943125,199650
1240.12752538557,202956
1243.63492163481,204746
1247.13801226993,206284
1250.63679729091,208234
1254.13127669776,210210
1257.62145049048,213268
1261.10731866907,216450
1264.58888123353,219741
1268.06613818385,222904
1272.6957831623,226279
1276.16299367965,228401
1279.62589858286,230727
1283.08449787195,232989
1286.5387915469,234550
1289.98877960772,236141
1293.43446205441,237505
1296.87583888696,238592
1300.31291010539,239766
1304.88897410797,240781
1308.31599889342,241395
1311.73871806474,242183
1315.15713162192,242531
1318.57123956497,242668
1321.98104189389,242575
1325.38653860868,242869
1328.78772970934,242841
1332.18461519586,242372
1336.70709822258,242338
1340.09393727613,241861
1343.47647071555,241245
1346.85469854083,240163
1350.22862075199,239098
1353.59823734901,237562
1356.9635483319,236065
1360.32455370065,234893
1363.68125345528,233757
1368.15015550613,232024
1371.49680882778,230684
1374.8391565353,229337
1378.17719862868,227401
1381.51093510794,224407
1384.84036597306,221775
1388.16549122405,220021
1391.48631086091,217426
1394.80282488363,216179
1399.21814595862,214311
1402.52461354837,213039
1405.82677552399,212237
1409.12463188548,211658
1412.41818263283,211037
1415.70742776605,210730
1418.99236728514,210612
1422.2730011901,210563
1425.54932948093,210705
1429.91106958005,211330
1433.1773514379,211430
1436.43932768162,211116
1439.6969983112,211902
1442.95036332666,211762
1446.19942272798,211932
1449.44417651517,211696
1452.68462468823,211896
1456.99852463033,211438
1460.22892637041,210765
1463.45502249637,209820
1466.67681300819,209229
1469.89429790587,208923
1473.10747718943,208029
1476.31635085885,207385
1479.52091891415,206613
1482.72118135531,205464
1486.98150032154,204321
1490.17171632972,202807
1493.35762672377,201687
1496.53923150369,200859
1499.71653066948,199558
1502.88952422114,198231
1506.05821215866,196784
1509.22259448206,195255
1512.38267119132,193922
1516.58940918168,191602
1519.73943945797,190207
1522.88516412012,188203
1526.02658316814,186454
1529.16369660203,184955
1532.29650442179,182690
1535.42500662741,181203
1538.54920321891,178721
1541.66909419627,177383
1545.82225121076,174431
1548.93209575515,172326
1552.0376346854,169876
1555.13886800153,167798
1558.23579570352,165220
1561.32841779137,162705
1564.4167342651,160229
1567.50074512469,158091
1570.58045037016,155287
1574.68002640879,151654
1577.74968522127,148400
1580.81503841963,145783
1583.87608600385,142600
1586.93282797394,139484
1589.9852643299,136923
1593.03339507173,133587
1596.07722019942,130475
1599.11673971298,127803
1603.16273477575,123739
1606.19220785634,121593
1609.21737532279,118132
1612.23823717512,115577
1615.25479341331,112500
1618.26704403737,109772
1621.27498904729,106814
1624.27862844309,103953
1627.27796222475,100947
1631.27037631165,97313
1634.25966366034,94596
1637.2446453949,91469
1640.22532151532,88354
1643.20169202161,85288
1646.17375691377,82601
1649.1415161918,79306
1652.10496985569,76307
1655.06411790546,73292
1659.00295101649,70048
1661.95205263328,67559
1664.89684863594,65611
1667.83733902446,63790
1670.77352379886,61566
1673.70540295912,59500
1676.63297650524,56544
1679.55624443724,53792
1682.4752067551,50664
1686.36045889027,46048
1689.26937477516,42573
1692.17398504592,38573
1695.07428970255,34388
1697.97028874504,30661
1700.8619821734,26211
##END=
