***Scan Config Information***,,,,,,,***Reference Scan Information***,,,,,,,
Scan Config Name:,Column 1,,,,,,Scan Config Name:,Built-in Factory Reference,,,,,,,,
Scan Config Type:,Slew,Num Section:,1,,,,Scan Config Type:,Slew,Num Section:,1,,,,,
Section Config Type:,Column,,,,,,Section Config Type:,Column,,,,,,,
Start Wavelength (nm):,900,,,,,,Start Wavelength (nm):,900,,,,,,,
End Wavelength (nm):,1700,,,,,,End Wavelength (nm):,1700,,,,,,,
Pattern Width (nm):,7.03,,,,,,Pattern Width (nm):,7.03,,,,,,,
Exposure (ms):,0.635,,,,,,Exposure (ms):,0.635,,,,,,,
Digital Resolution:,228,,,,,,Digital Resolution:,228,,,,,,,
Num Repeats:,6,,,,,,Num Repeats:,30,,,,,,,
PGA Gain:,64,,,,,,PGA Gain:,64,,,,,,,
System Temp (C):,54.06,,,,,,System Temp (C):,27.52,,,,,,,
Humidity (%):,13.81,,,,,,Humidity (%):,73.2,,,,,,,
Lamp Intensity:,2724,,,,,,Lamp Intensity:,2274,,,,,,,
Data Date-Time:,27/10/20 @ 14:37:4,,,,,,Data Date-Time:,9/7/19 @ 16:39:9,,,,,,,
Total Measurement Time in sec:,1.8420988,,,,,,,,,,,,,,
,,,,,,,,,,,,,,,
***General Information***,,,,,,,***Calibration Coefficients***,,,,,,,
Model Name:,NIR-X-XX,,,,,,Shift Vector Coefficients:,-6.85384978732833,0.0551332794684546,-0.000110731550088635,,,,,
Serial Number:,925R021,(95UB122GC1A925R021),,,,,Pixel to Wavelength Coefficients:,1790.66412099084,-0.917492857141292,-0.000239200785115314,,,,,
GUI Version:,2.4.4,,,,,,Versions (Cal/Ref/Cfg):,1,3,1,,,,,
TIVA Version:,2.1.0.67,,,,,,***Lamp Usage * **,,,,,,,
DLPC Version:,2.0.0,,,,,,Total Time(HH:MM:SS):,NA,,,,,,
UUID:,00:00:00:00:00:00:00:00,,,,,,***Device/Error Status***,,,,,,,
Main Board Version:,D,,,,,,Device Status:,0x00000001,,,,,,
Detector Board Version:,B,,,,,,Error status:,0x00000000,Error Code:,0x00000000000000000000000000000000,,,,
,,,,,,,,,,,,,,,
***Scan Data***,,,,,,,,,,,,,,
Wavelength (nm),Absorbance (AU)
901.630473432251,0.561596466584816
905.531115772228,0.562982920930617
909.427452498074,0.568113789681917
913.319483609787,0.573742770797856
917.207209107368,0.578750402083828
921.090628990817,0.590364539164101
924.969743260134,0.602144064984479
930.13519799724,0.603038927873998
934.004265833582,0.602628332885938
937.869028055792,0.590648398316496
941.72948466387,0.583339357845126
945.585635657816,0.578200511766463
949.43748103763,0.571846109324976
953.285020803312,0.568024910908698
957.128254954862,0.567682792978458
960.967183492279,0.564946268805028
966.07905725352,0.565570438727483
969.907939357962,0.564611845325251
973.732515848273,0.564868104204077
977.552786724452,0.567206557068729
981.368751986498,0.566651734063994
985.180411634413,0.567896766618423
988.987765668195,0.567904040078629
992.790814087846,0.569057759740362
996.589556893364,0.56972087333136
1001.64784967874,0.569532170338605
1005.43654605128,0.567932029349639
1009.22093680969,0.567664827627938
1013.00102195397,0.566905760715896
1016.77680148412,0.56714968924876
1020.54827540013,0.566580489392771
1024.31544370202,0.566217518373674
1028.07830638977,0.566272318203036
1031.83686346339,0.565932042006474
1036.8415752729,0.567361281397604
1040.59008591354,0.566075927914205
1044.33429094005,0.565775957503427
1048.07419035243,0.566054544323068
1051.80978415068,0.566539846212038
1055.5410723348,0.565330536487776
1059.26805490478,0.565949567820311
1062.99073186063,0.567356396461476
1066.70910320235,0.567040756693279
1071.66023403599,0.567498502005883
1075.36855894474,0.568687597445599
1079.07257823935,0.568224489837957
1082.77229191983,0.566185344608712
1086.46769998618,0.567510783525708
1090.1588024384,0.568147284637401
1093.84559927648,0.569442277239778
1097.52809050043,0.568895172834404
1101.20627611025,0.568300967927844
1106.10382596803,0.569306416372862
1109.77196514487,0.568454227144291
1113.43579870759,0.569127635324946
1117.09532665617,0.56955940299609
1120.75054899062,0.567846597139029
1124.40146571093,0.56880735371516
1128.04807681712,0.568779215420057
1131.69038230917,0.568613137822461
1135.32838218709,0.568052054214658
1140.172351069,0.567196556327383
1143.80030451395,0.56817898890858
1147.42395234476,0.5665088022497
1151.04329456145,0.56607969043081
1154.658331164,0.565385139599484
1158.26906215241,0.565579219449892
1161.8754875267,0.566364343112171
1165.47760728685,0.564899508753943
1169.07542143287,0.566805100500505
1173.86580933892,0.566112412217797
1177.45357705197,0.566046023642364
1181.03703915088,0.566111180147657
1184.61619563566,0.564422968505549
1188.19104650631,0.564989317217978
1191.76159176283,0.565626766221536
1195.32783140522,0.564301370407341
1198.88976543347,0.563469854684996
1202.44739384759,0.562961715156115
1207.18420077777,0.56271376835574
1210.73178275892,0.562726466210591
1214.27505912594,0.562652898780232
1217.81402987882,0.562615929723081
1221.34869501757,0.562186440378976
1224.87905454219,0.562939271560562
1228.40510845267,0.56298004679622
1231.92685674903,0.562601094367307
1235.44429943125,0.563664605531293
1240.12752538557,0.564390287512766
1243.63492163481,0.563981454173957
1247.13801226993,0.565350530138275
1250.63679729091,0.563686923131274
1254.13127669776,0.563506014094385
1257.62145049048,0.564097685386826
1261.10731866907,0.563825306208634
1264.58888123353,0.563747972488687
1268.06613818385,0.565672288795473
1272.6957831623,0.565075557366552
1276.16299367965,0.565873498266694
1279.62589858286,0.566634776472426
1283.08449787195,0.567306771373579
1286.5387915469,0.567588416844553
1289.98877960772,0.567599582172334
1293.43446205441,0.567811469659165
1296.87583888696,0.567192425374475
1300.31291010539,0.568600826798645
1304.88897410797,0.568633483036693
1308.31599889342,0.569095036233964
1311.73871806474,0.569047709254161
1315.15713162192,0.569361500992482
1318.57123956497,0.569325265420627
1321.98104189389,0.570213344303734
1325.38653860868,0.570059604161712
1328.78772970934,0.570059279160516
1332.18461519586,0.569581732312972
1336.70709822258,0.569814651047508
1340.09393727613,0.569603302424883
1343.47647071555,0.571270010032318
1346.85469854083,0.570744218525999
1350.22862075199,0.571819422395801
1353.59823734901,0.57247369328663
1356.9635483319,0.571800172776936
1360.32455370065,0.571989279146885
1363.68125345528,0.57228580598108
1368.15015550613,0.572823160938832
1371.49680882778,0.573830175152874
1374.8391565353,0.573994339544932
1378.17719862868,0.573698074274411
1381.51093510794,0.57371178460192
1384.84036597306,0.573984479655444
1388.16549122405,0.573661568502818
1391.48631086091,0.574466900925047
1394.80282488363,0.574190453324574
1399.21814595862,0.576111024293613
1402.52461354837,0.577283526638972
1405.82677552399,0.578817327820758
1409.12463188548,0.5786574337546
1412.41818263283,0.578688645359841
1415.70742776605,0.579641732197456
1418.99236728514,0.579175010937299
1422.2730011901,0.57952697709401
1425.54932948093,0.579645341027924
1429.91106958005,0.578414375436572
1433.1773514379,0.57827941407281
1436.43932768162,0.57793051038073
1439.6969983112,0.577434200682533
1442.95036332666,0.578037671348404
1446.19942272798,0.577577854551261
1449.44417651517,0.577281361886407
1452.68462468823,0.5778440366933
1456.99852463033,0.575767352430577
1460.22892637041,0.576567540253872
1463.45502249637,0.575266678423801
1466.67681300819,0.576886010234413
1469.89429790587,0.576654156295578
1473.10747718943,0.575964216761078
1476.31635085885,0.575120871622968
1479.52091891415,0.575714434845338
1482.72118135531,0.575923542845381
1486.98150032154,0.57586640651206
1490.17171632972,0.575136986236439
1493.35762672377,0.575149985845717
1496.53923150369,0.575559155420154
1499.71653066948,0.57542664554729
1502.88952422114,0.575100930386642
1506.05821215866,0.575157891829238
1509.22259448206,0.575897232773475
1512.38267119132,0.574909558944492
1516.58940918168,0.574161823236355
1519.73943945797,0.575236575597987
1522.88516412012,0.574753140880974
1526.02658316814,0.574954848079592
1529.16369660203,0.574226382856932
1532.29650442179,0.574312377451729
1535.42500662741,0.574013558674869
1538.54920321891,0.574541485005778
1541.66909419627,0.573894921260643
1545.82225121076,0.57476817993605
1548.93209575515,0.574500748491246
1552.0376346854,0.574102477598735
1555.13886800153,0.574582836886371
1558.23579570352,0.573978319084488
1561.32841779137,0.57480222441013
1564.4167342651,0.574058446429606
1567.50074512469,0.574460055470844
1570.58045037016,0.574039543533746
1574.68002640879,0.573188876826338
1577.74968522127,0.573786102003654
1580.81503841963,0.574727026389072
1583.87608600385,0.573844739332306
1586.93282797394,0.574554005801707
1589.9852643299,0.574580480549784
1593.03339507173,0.575498674554262
1596.07722019942,0.574815578407763
1599.11673971298,0.573207129412442
1603.16273477575,0.574418616949381
1606.19220785634,0.57345545272854
1609.21737532279,0.573712338450609
1612.23823717512,0.57607924551223
1615.25479341331,0.573742588228542
1618.26704403737,0.573503088402339
1621.27498904729,0.572984311355027
1624.27862844309,0.573967370459137
1627.27796222475,0.573698969118101
1631.27037631165,0.576146396453397
1634.25966366034,0.576014926176623
1637.2446453949,0.579011229534882
1640.22532151532,0.580498308243833
1643.20169202161,0.580015443099249
1646.17375691377,0.583565191568352
1649.1415161918,0.58341583386815
1652.10496985569,0.583348513535422
1655.06411790546,0.581632665588053
1659.00295101649,0.573249148752425
1661.95205263328,0.566405718160313
1664.89684863594,0.544220121274874
1667.83733902446,0.521675287824269
1670.77352379886,0.486988271930395
1673.70540295912,0.443458427771483
1676.63297650524,0.397434280473552
1679.55624443724,0.352185632862921
1682.4752067551,0.298476914703066
1686.36045889027,0.247615537211041
1689.26937477516,0.209800696169314
1692.17398504592,0.182356040268435
1695.07428970255,0.165406740645531
1697.97028874504,0.157072779092465
1700.8619821734,0.158150330644082
