##TITLE=Column 1
##JCAMP-DX=4.24
##DATA TYPE=INFRARED SPECTRUM
##Method:,Column 1,Built-In Reference,,,Model Name,NIR-X-XX
##Host Date-Time:,27/10/20 @ 14:36:11,9/7/19 @ 16:39:9,,,GUI Version,2.4.4
##Header Version:,1,1,,,Tiva Version,2.1.0.67
##System Temp (C):,53.99,27.52,,,DLPC Version,2.0.0
##Detector Temp (C),0,0,,,UUID,00:00:00:00:00:00:00:00
##Humidity (%):,13.86,73.2,,,Main Board Version,D
##Lamp PD:,2726,2274
##Shift Vector Coefficients:,-6.85384978732833,0.0551332794684546,-0.000110731550088635
##Pixel to Wavelength Coefficients:,1790.66412099084,-0.917492857141292,-0.000239200785115314
##Serial Number:,925R021,925R021
##Scan Config Name:,Column 1,SystemTest
##Scan Config Type:,Column,Column
##Start wavelength (nm):,900,900
##End wavelength (nm):,1700,1700
##Pattern Pixel Width (nm):,7.03,7.03
##Exposure (ms):,0.635,0.635
##Digital Resolution:,228,228
##NPOINTS=228
##Num Repeats:,6,30
##PGA Gain:,64,64
##Total Measurement Time in sec:,1.7861857
##XUNITS=Wavelength(nm)
##YUNITS=Intensity
##FIRSTX=901.630473432251
##LASTX=1700.8619821734
##PEAK TABLE=X+(Y..Y)
901.630473432251,32687
905.531115772228,35135
909.427452498074,37955
913.319483609787,40667
917.207209107368,44126
921.090628990817,47880
924.969743260134,52481
930.13519799724,60886
934.004265833582,67199
937.869028055792,73818
941.72948466387,79904
945.585635657816,85219
949.43748103763,89275
953.285020803312,93724
957.128254954862,97290
960.967183492279,100531
966.07905725352,105179
969.907939357962,108396
973.732515848273,110922
977.552786724452,113824
981.368751986498,116538
985.180411634413,118549
988.987765668195,120835
992.790814087846,122373
996.589556893364,124199
1001.64784967874,126280
1005.43654605128,127414
1009.22093680969,127621
1013.00102195397,128400
1016.77680148412,128373
1020.54827540013,128679
1024.31544370202,128978
1028.07830638977,128462
1031.83686346339,128827
1036.8415752729,128146
1040.59008591354,127455
1044.33429094005,127256
1048.07419035243,126785
1051.80978415068,126422
1055.5410723348,126054
1059.26805490478,125637
1062.99073186063,125510
1066.70910320235,125300
1071.66023403599,125870
1075.36855894474,126335
1079.07257823935,126819
1082.77229191983,127360
1086.46769998618,128169
1090.1588024384,129211
1093.84559927648,130154
1097.52809050043,130988
1101.20627611025,132086
1106.10382596803,133727
1109.77196514487,135173
1113.43579870759,136961
1117.09532665617,138266
1120.75054899062,139287
1124.40146571093,140575
1128.04807681712,142328
1131.69038230917,143317
1135.32838218709,144624
1140.172351069,147015
1143.80030451395,148241
1147.42395234476,149804
1151.04329456145,150844
1154.658331164,152528
1158.26906215241,154084
1161.8754875267,155499
1165.47760728685,156774
1169.07542143287,158200
1173.86580933892,161006
1177.45357705197,162434
1181.03703915088,164237
1184.61619563566,166076
1188.19104650631,168377
1191.76159176283,170263
1195.32783140522,172318
1198.88976543347,175171
1202.44739384759,177412
1207.18420077777,180792
1210.73178275892,183029
1214.27505912594,185123
1217.81402987882,187821
1221.34869501757,190257
1224.87905454219,192552
1228.40510845267,194627
1231.92685674903,196931
1235.44429943125,198871
1240.12752538557,201178
1243.63492163481,203404
1247.13801226993,204587
1250.63679729091,205919
1254.13127669776,208241
1257.62145049048,210598
1261.10731866907,214076
1264.58888123353,217049
1268.06613818385,219873
1272.6957831623,223055
1276.16299367965,225666
1279.62589858286,227703
1283.08449787195,229634
1286.5387915469,231111
1289.98877960772,232573
1293.43446205441,234622
1296.87583888696,235748
1300.31291010539,236532
1304.88897410797,237732
1308.31599889342,238557
1311.73871806474,239279
1315.15713162192,239845
1318.57123956497,240075
1321.98104189389,240253
1325.38653860868,240744
1328.78772970934,240791
1332.18461519586,239871
1336.70709822258,240208
1340.09393727613,239791
1343.47647071555,239018
1346.85469854083,237852
1350.22862075199,237253
1353.59823734901,235913
1356.9635483319,234394
1360.32455370065,233074
1363.68125345528,231812
1368.15015550613,230700
1371.49680882778,229724
1374.8391565353,228162
1378.17719862868,225321
1381.51093510794,222902
1384.84036597306,220703
1388.16549122405,218452
1391.48631086091,216407
1394.80282488363,214947
1399.21814595862,213002
1402.52461354837,212006
1405.82677552399,211406
1409.12463188548,210634
1412.41818263283,210232
1415.70742776605,209935
1418.99236728514,209482
1422.2730011901,209532
1425.54932948093,209824
1429.91106958005,209940
1433.1773514379,210499
1436.43932768162,210230
1439.6969983112,210577
1442.95036332666,210832
1446.19942272798,210656
1449.44417651517,210988
1452.68462468823,210740
1456.99852463033,210096
1460.22892637041,209743
1463.45502249637,208822
1466.67681300819,208149
1469.89429790587,207531
1473.10747718943,206905
1476.31635085885,206444
1479.52091891415,205232
1482.72118135531,204662
1486.98150032154,202935
1490.17171632972,201844
1493.35762672377,200535
1496.53923150369,199547
1499.71653066948,198296
1502.88952422114,197227
1506.05821215866,195677
1509.22259448206,194392
1512.38267119132,192551
1516.58940918168,190303
1519.73943945797,189588
1522.88516412012,187381
1526.02658316814,185936
1529.16369660203,184148
1532.29650442179,182477
1535.42500662741,180607
1538.54920321891,178647
1541.66909419627,176338
1545.82225121076,174267
1548.93209575515,172347
1552.0376346854,169460
1555.13886800153,167559
1558.23579570352,165545
1561.32841779137,163420
1564.4167342651,161040
1567.50074512469,158491
1570.58045037016,156149
1574.68002640879,152336
1577.74968522127,149369
1580.81503841963,146901
1583.87608600385,143906
1586.93282797394,140939
1589.9852643299,138213
1593.03339507173,135114
1596.07722019942,132667
1599.11673971298,129785
1603.16273477575,125925
1606.19220785634,123620
1609.21737532279,120261
1612.23823717512,117564
1615.25479341331,115012
1618.26704403737,112580
1621.27498904729,109240
1624.27862844309,106443
1627.27796222475,103956
1631.27037631165,100111
1634.25966366034,97137
1637.2446453949,94285
1640.22532151532,91076
1643.20169202161,88070
1646.17375691377,85439
1649.1415161918,82242
1652.10496985569,79446
1655.06411790546,76753
1659.00295101649,72937
1661.95205263328,70817
1664.89684863594,68741
1667.83733902446,65824
1670.77352379886,63633
1673.70540295912,61408
1676.63297650524,58222
1679.55624443724,55456
1682.4752067551,51982
1686.36045889027,47220
1689.26937477516,43402
1692.17398504592,39597
1695.07428970255,35316
1697.97028874504,30817
1700.8619821734,27146
##END=
