##TITLE=Column 1
##JCAMP-DX=4.24
##DATA TYPE=INFRARED SPECTRUM
##Method:,Column 1,Built-In Reference,,,Model Name,NIR-X-XX
##Host Date-Time:,27/10/20 @ 14:36:47,9/7/19 @ 16:39:9,,,GUI Version,2.4.4
##Header Version:,1,1,,,Tiva Version,2.1.0.67
##System Temp (C):,54.04,27.52,,,DLPC Version,2.0.0
##Detector Temp (C),0,0,,,UUID,00:00:00:00:00:00:00:00
##Humidity (%):,13.86,73.2,,,Main Board Version,D
##Lamp PD:,2724,2274
##Shift Vector Coefficients:,-6.85384978732833,0.0551332794684546,-0.000110731550088635
##Pixel to Wavelength Coefficients:,1790.66412099084,-0.917492857141292,-0.000239200785115314
##Serial Number:,925R021,925R021
##Scan Config Name:,Column 1,SystemTest
##Scan Config Type:,Column,Column
##Start wavelength (nm):,900,900
##End wavelength (nm):,1700,1700
##Pattern Pixel Width (nm):,7.03,7.03
##Exposure (ms):,0.635,0.635
##Digital Resolution:,228,228
##NPOINTS=228
##Num Repeats:,6,30
##PGA Gain:,64,64
##Total Measurement Time in sec:,1.7950293
##XUNITS=Wavelength(nm)
##YUNITS=Absorbance(AU)
##FIRSTX=901.630473432251
##LASTX=1700.8619821734
##PEAK TABLE=X+(Y..Y)
901.630473432251,0.491104504176521
905.531115772228,0.490880498401917
909.427452498074,0.499044336908222
913.319483609787,0.509118345049631
917.207209107368,0.520547195465882
921.090628990817,0.538115419404026
924.969743260134,0.545174313252443
930.13519799724,0.556460963548142
934.004265833582,0.558355410680971
937.869028055792,0.549978093829359
941.72948466387,0.542064539957253
945.585635657816,0.538093856929717
949.43748103763,0.536798184478378
953.285020803312,0.533064126049305
957.128254954862,0.532836179290917
960.967183492279,0.534713756447243
966.07905725352,0.535957523354704
969.907939357962,0.536303961829247
973.732515848273,0.537327065605453
977.552786724452,0.539926732405053
981.368751986498,0.541159535441926
985.180411634413,0.541644793678935
988.987765668195,0.540782841150955
992.790814087846,0.543392821904731
996.589556893364,0.544633506384914
1001.64784967874,0.54266616632094
1005.43654605128,0.542863769422909
1009.22093680969,0.542735294882243
1013.00102195397,0.541791368301838
1016.77680148412,0.542460501303493
1020.54827540013,0.541785489426328
1024.31544370202,0.540075781260365
1028.07830638977,0.539028322258057
1031.83686346339,0.539824498096379
1036.8415752729,0.538404729579903
1040.59008591354,0.537835601143431
1044.33429094005,0.535899708647607
1048.07419035243,0.535304721645594
1051.80978415068,0.534937877598103
1055.5410723348,0.533819203293254
1059.26805490478,0.533765161464566
1062.99073186063,0.531725838356602
1066.70910320235,0.53125282760009
1071.66023403599,0.528723182206011
1075.36855894474,0.528521281325513
1079.07257823935,0.526267190157439
1082.77229191983,0.525513082920122
1086.46769998618,0.524368608933954
1090.1588024384,0.523107203085727
1093.84559927648,0.52130682282331
1097.52809050043,0.520965180250345
1101.20627611025,0.518622926689856
1106.10382596803,0.516965833534537
1109.77196514487,0.513631594956383
1113.43579870759,0.514527767007378
1117.09532665617,0.514168029548928
1120.75054899062,0.512609711960024
1124.40146571093,0.513202780877456
1128.04807681712,0.5136656153012
1131.69038230917,0.512330929772292
1135.32838218709,0.511049954129262
1140.172351069,0.509400265293896
1143.80030451395,0.509520338399145
1147.42395234476,0.508767441765244
1151.04329456145,0.509160396129851
1154.658331164,0.508891428877882
1158.26906215241,0.508987280111358
1161.8754875267,0.510096705793496
1165.47760728685,0.510303033942082
1169.07542143287,0.510240714608986
1173.86580933892,0.511767882474262
1177.45357705197,0.512544072062977
1181.03703915088,0.513513141071807
1184.61619563566,0.513292971958428
1188.19104650631,0.514590189181144
1191.76159176283,0.515011385071609
1195.32783140522,0.514848472820042
1198.88976543347,0.51586490303955
1202.44739384759,0.515612409762067
1207.18420077777,0.516420401332361
1210.73178275892,0.517571994221539
1214.27505912594,0.518226053124933
1217.81402987882,0.517981423468054
1221.34869501757,0.519660888252682
1224.87905454219,0.519561282374215
1228.40510845267,0.520748254258333
1231.92685674903,0.521462850135533
1235.44429943125,0.522425321858121
1240.12752538557,0.523282449375636
1243.63492163481,0.523323931179233
1247.13801226993,0.523866778570299
1250.63679729091,0.524541605548831
1254.13127669776,0.523875435554263
1257.62145049048,0.523848860384702
1261.10731866907,0.524004037163839
1264.58888123353,0.524944927873571
1268.06613818385,0.52553374854157
1272.6957831623,0.526550751398857
1276.16299367965,0.525909201633008
1279.62589858286,0.525583957019795
1283.08449787195,0.526519904575844
1286.5387915469,0.527712280655657
1289.98877960772,0.527489866095052
1293.43446205441,0.52704184633442
1296.87583888696,0.527591250359444
1300.31291010539,0.528460427467537
1304.88897410797,0.52810168427775
1308.31599889342,0.528064544569032
1311.73871806474,0.528275469072953
1315.15713162192,0.528463553903824
1318.57123956497,0.528056401832023
1321.98104189389,0.528507538188075
1325.38653860868,0.529022410520166
1328.78772970934,0.528592690083645
1332.18461519586,0.528124268894277
1336.70709822258,0.529036994506716
1340.09393727613,0.529038384536971
1343.47647071555,0.529405803747003
1346.85469854083,0.530555119140532
1350.22862075199,0.530149723220352
1353.59823734901,0.530953600265559
1356.9635483319,0.531640541752707
1360.32455370065,0.530909110902238
1363.68125345528,0.532067267125593
1368.15015550613,0.532101598500039
1371.49680882778,0.532614849437532
1374.8391565353,0.532054519679537
1378.17719862868,0.532402145999149
1381.51093510794,0.532384418908771
1384.84036597306,0.532984291029261
1388.16549122405,0.532688183995048
1391.48631086091,0.533789831461674
1394.80282488363,0.534970271144174
1399.21814595862,0.536610890338137
1402.52461354837,0.53721684358224
1405.82677552399,0.538461545879841
1409.12463188548,0.539016746258429
1412.41818263283,0.540342308559418
1415.70742776605,0.540590886200644
1418.99236728514,0.540696607114026
1422.2730011901,0.541102544252596
1425.54932948093,0.540478053996946
1429.91106958005,0.539887935129839
1433.1773514379,0.539869642444725
1436.43932768162,0.540723797506678
1439.6969983112,0.53925031896585
1442.95036332666,0.539651317013081
1446.19942272798,0.538807267145081
1449.44417651517,0.537819031859589
1452.68462468823,0.538686999968398
1456.99852463033,0.538055206432509
1460.22892637041,0.538203809140849
1463.45502249637,0.538524613662286
1466.67681300819,0.538772612260746
1469.89429790587,0.538982921781933
1473.10747718943,0.538579810116414
1476.31635085885,0.537575087356079
1479.52091891415,0.538356353914281
1482.72118135531,0.538396442381015
1486.98150032154,0.537594162041358
1490.17171632972,0.53856705130318
1493.35762672377,0.538082185434312
1496.53923150369,0.538266344458353
1499.71653066948,0.538551946679463
1502.88952422114,0.53861362510756
1506.05821215866,0.538655765995823
1509.22259448206,0.538219385655421
1512.38267119132,0.538476836655863
1516.58940918168,0.538171949515497
1519.73943945797,0.538285990530557
1522.88516412012,0.537999262667662
1526.02658316814,0.538351706882318
1529.16369660203,0.538763147700345
1532.29650442179,0.539061190108265
1535.42500662741,0.538873282025561
1538.54920321891,0.539273397264231
1541.66909419627,0.538772388836525
1545.82225121076,0.538901687371033
1548.93209575515,0.538293522506122
1552.0376346854,0.539466631548183
1555.13886800153,0.538617220594412
1558.23579570352,0.538525421489634
1561.32841779137,0.538881852646345
1564.4167342651,0.539770417679454
1567.50074512469,0.539690531701407
1570.58045037016,0.540937626243044
1574.68002640879,0.540827755269076
1577.74968522127,0.542059451608275
1580.81503841963,0.542174571933241
1583.87608600385,0.543242159243415
1586.93282797394,0.544242783743313
1589.9852643299,0.54484360565689
1593.03339507173,0.545396976179175
1596.07722019942,0.5471599442784
1599.11673971298,0.548130040133492
1603.16273477575,0.549757548072754
1606.19220785634,0.551248190264077
1609.21737532279,0.552528504767078
1612.23823717512,0.55592400227625
1615.25479341331,0.555217347368694
1618.26704403737,0.555679244216049
1621.27498904729,0.557806025295884
1624.27862844309,0.561271890872176
1627.27796222475,0.561749516866211
1631.27037631165,0.563674592972064
1634.25966366034,0.56640906990043
1637.2446453949,0.571792812117203
1640.22532151532,0.575813512024422
1643.20169202161,0.58024371570832
1646.17375691377,0.584162855809541
1649.1415161918,0.593085931917734
1652.10496985569,0.595066135812067
1655.06411790546,0.598865763821098
1659.00295101649,0.593984708703897
1661.95205263328,0.585479297218955
1664.89684863594,0.567334717145436
1667.83733902446,0.542494781099179
1670.77352379886,0.502848638573458
1673.70540295912,0.464208007649115
1676.63297650524,0.413735973702437
1679.55624443724,0.365285698473208
1682.4752067551,0.319703837384862
1686.36045889027,0.261627143654079
1689.26937477516,0.22825502714108
1692.17398504592,0.205935945346497
1695.07428970255,0.180902842817856
1697.97028874504,0.182115595195791
1700.8619821734,0.179413131922858
##END=
