##TITLE=Column 1
##JCAMP-DX=4.24
##DATA TYPE=INFRARED SPECTRUM
##Method:,Column 1,Built-In Reference,,,Model Name,NIR-X-XX
##Host Date-Time:,27/10/20 @ 14:36:14,9/7/19 @ 16:39:9,,,GUI Version,2.4.4
##Header Version:,1,1,,,Tiva Version,2.1.0.67
##System Temp (C):,53.99,27.52,,,DLPC Version,2.0.0
##Detector Temp (C),0,0,,,UUID,00:00:00:00:00:00:00:00
##Humidity (%):,13.86,73.2,,,Main Board Version,D
##Lamp PD:,2725,2274
##Shift Vector Coefficients:,-6.85384978732833,0.0551332794684546,-0.000110731550088635
##Pixel to Wavelength Coefficients:,1790.66412099084,-0.917492857141292,-0.000239200785115314
##Serial Number:,925R021,925R021
##Scan Config Name:,Column 1,SystemTest
##Scan Config Type:,Column,Column
##Start wavelength (nm):,900,900
##End wavelength (nm):,1700,1700
##Pattern Pixel Width (nm):,7.03,7.03
##Exposure (ms):,0.635,0.635
##Digital Resolution:,228,228
##NPOINTS=228
##Num Repeats:,6,30
##PGA Gain:,64,64
##Total Measurement Time in sec:,1.78619
##XUNITS=Wavelength(nm)
##YUNITS=Absorbance(AU)
##FIRSTX=901.630473432251
##LASTX=1700.8619821734
##PEAK TABLE=X+(Y..Y)
901.630473432251,0.447579215955281
905.531115772228,0.454341182707148
909.427452498074,0.45346576092305
913.319483609787,0.459929652572366
917.207209107368,0.469158943650689
921.090628990817,0.480573023589625
924.969743260134,0.489448021455279
930.13519799724,0.498527526234515
934.004265833582,0.496057462963959
937.869028055792,0.488858658503833
941.72948466387,0.479765935824761
945.585635657816,0.475225775941925
949.43748103763,0.469860193982264
953.285020803312,0.466157892340039
957.128254954862,0.466397018333038
960.967183492279,0.467344415250144
966.07905725352,0.467238285864642
969.907939357962,0.468933182811118
973.732515848273,0.470543537907605
977.552786724452,0.470570153999563
981.368751986498,0.472779602113221
985.180411634413,0.472575301311043
988.987765668195,0.474133978225101
992.790814087846,0.473696777323395
996.589556893364,0.47366361118241
1001.64784967874,0.474599977754504
1005.43654605128,0.472836402590372
1009.22093680969,0.474028285151823
1013.00102195397,0.472711293023934
1016.77680148412,0.473212225741783
1020.54827540013,0.473052770582119
1024.31544370202,0.472665634546781
1028.07830638977,0.472446777106595
1031.83686346339,0.472125222381469
1036.8415752729,0.472080950542252
1040.59008591354,0.471806663644824
1044.33429094005,0.470888766488155
1048.07419035243,0.472827727596463
1051.80978415068,0.471555156645372
1055.5410723348,0.471847161812604
1059.26805490478,0.47254014300404
1062.99073186063,0.471737748956829
1066.70910320235,0.4696113331902
1071.66023403599,0.470781168482982
1075.36855894474,0.470551557379326
1079.07257823935,0.469701859757551
1082.77229191983,0.468916895546767
1086.46769998618,0.470078671155404
1090.1588024384,0.468359647503492
1093.84559927648,0.467099571289957
1097.52809050043,0.465420194234893
1101.20627611025,0.465498130699152
1106.10382596803,0.464136877289544
1109.77196514487,0.462629893134666
1113.43579870759,0.463291385869273
1117.09532665617,0.462280215748417
1120.75054899062,0.460962482237147
1124.40146571093,0.461419360785725
1128.04807681712,0.461081234551812
1131.69038230917,0.461097090431869
1135.32838218709,0.459245322968953
1140.172351069,0.458600815430679
1143.80030451395,0.456266783498045
1147.42395234476,0.456984479678675
1151.04329456145,0.455837438698817
1154.658331164,0.455768585731277
1158.26906215241,0.456926830856421
1161.8754875267,0.456047340076487
1165.47760728685,0.455580871266516
1169.07542143287,0.456172759251515
1173.86580933892,0.456389414326654
1177.45357705197,0.457423535361398
1181.03703915088,0.456645751397431
1184.61619563566,0.456645278255043
1188.19104650631,0.456949584844769
1191.76159176283,0.45623008285022
1195.32783140522,0.455656234049
1198.88976543347,0.455797192860233
1202.44739384759,0.455387617140595
1207.18420077777,0.455710936936423
1210.73178275892,0.456498253434019
1214.27505912594,0.456226398663363
1217.81402987882,0.457291651726933
1221.34869501757,0.45635630266936
1224.87905454219,0.457265524435823
1228.40510845267,0.458109458942402
1231.92685674903,0.458290539131274
1235.44429943125,0.458366287993646
1240.12752538557,0.459312189521415
1243.63492163481,0.45931798833809
1247.13801226993,0.460241620324336
1250.63679729091,0.461150664918223
1254.13127669776,0.460858939552082
1257.62145049048,0.460123572307623
1261.10731866907,0.461138437703787
1264.58888123353,0.461524286182705
1268.06613818385,0.46208618858147
1272.6957831623,0.462659074578749
1276.16299367965,0.462764761356004
1279.62589858286,0.463035704752451
1283.08449787195,0.464009197219472
1286.5387915469,0.463480056620036
1289.98877960772,0.464496635402897
1293.43446205441,0.463991988725241
1296.87583888696,0.464457811689086
1300.31291010539,0.464202268756203
1304.88897410797,0.464066725184594
1308.31599889342,0.464870489617726
1311.73871806474,0.464281894608674
1315.15713162192,0.46499317381127
1318.57123956497,0.464835032400993
1321.98104189389,0.464013332820303
1325.38653860868,0.46410389074748
1328.78772970934,0.464797279144333
1332.18461519586,0.464344062231318
1336.70709822258,0.46411517793987
1340.09393727613,0.465135516145302
1343.47647071555,0.464956692882761
1346.85469854083,0.46526644996907
1350.22862075199,0.465829290229615
1353.59823734901,0.465442100553758
1356.9635483319,0.465892959632939
1360.32455370065,0.466056405091729
1363.68125345528,0.466177016661165
1368.15015550613,0.466047224531082
1371.49680882778,0.466339150731479
1374.8391565353,0.466231787859197
1378.17719862868,0.466025751884291
1381.51093510794,0.466695620006257
1384.84036597306,0.466376165858921
1388.16549122405,0.466967695581425
1391.48631086091,0.467336934733484
1394.80282488363,0.467856230220294
1399.21814595862,0.469157798255472
1402.52461354837,0.469865489379692
1405.82677552399,0.471262795944383
1409.12463188548,0.471579657021354
1412.41818263283,0.472096349363434
1415.70742776605,0.471268626586411
1418.99236728514,0.471852540851785
1422.2730011901,0.472341709148781
1425.54932948093,0.471296934349971
1429.91106958005,0.471333668661234
1433.1773514379,0.470902215126801
1436.43932768162,0.469956108200519
1439.6969983112,0.469671374090615
1442.95036332666,0.469302287470262
1446.19942272798,0.468776092692623
1449.44417651517,0.469246489173073
1452.68462468823,0.468271700197462
1456.99852463033,0.468465090924707
1460.22892637041,0.468681609439316
1463.45502249637,0.467557145136425
1466.67681300819,0.46768382791678
1469.89429790587,0.468362859716883
1473.10747718943,0.467688995684245
1476.31635085885,0.467382707691366
1479.52091891415,0.467171298202783
1482.72118135531,0.467220614750401
1486.98150032154,0.466711182708459
1490.17171632972,0.467075293273236
1493.35762672377,0.467020697804388
1496.53923150369,0.466449782120914
1499.71653066948,0.466755366469918
1502.88952422114,0.466354376083809
1506.05821215866,0.465662092878382
1509.22259448206,0.466132479657695
1512.38267119132,0.466104888397233
1516.58940918168,0.466323304575865
1519.73943945797,0.466824605518891
1522.88516412012,0.465870516109492
1526.02658316814,0.465905262487395
1529.16369660203,0.46634094046186
1532.29650442179,0.465838654631499
1535.42500662741,0.465409696021252
1538.54920321891,0.465004801944008
1541.66909419627,0.46572265669449
1545.82225121076,0.464629435503716
1548.93209575515,0.465205157993511
1552.0376346854,0.463647734497961
1555.13886800153,0.463850853216682
1558.23579570352,0.463573032237176
1561.32841779137,0.462976523181052
1564.4167342651,0.463194258937119
1567.50074512469,0.463643809850123
1570.58045037016,0.461943593387549
1574.68002640879,0.461911034369809
1577.74968522127,0.462092913725972
1580.81503841963,0.462320672583297
1583.87608600385,0.462594684166389
1586.93282797394,0.462150200926332
1589.9852643299,0.462615133853756
1593.03339507173,0.462232393587163
1596.07722019942,0.462366212610553
1599.11673971298,0.462440508651928
1603.16273477575,0.462031621750955
1606.19220785634,0.461681212133071
1609.21737532279,0.461112033845465
1612.23823717512,0.462455149643765
1615.25479341331,0.462500301957435
1618.26704403737,0.462707885478576
1621.27498904729,0.463429041557004
1624.27862844309,0.461754189346718
1627.27796222475,0.463080138077037
1631.27037631165,0.464707524102007
1634.25966366034,0.465903723386127
1637.2446453949,0.467303932508123
1640.22532151532,0.469590405461138
1643.20169202161,0.476109722662943
1646.17375691377,0.477280272875993
1649.1415161918,0.482439723214391
1652.10496985569,0.486187475339372
1655.06411790546,0.487843344919549
1659.00295101649,0.482836652930665
1661.95205263328,0.470345628651759
1664.89684863594,0.451933334486425
1667.83733902446,0.422674641770815
1670.77352379886,0.389105957437332
1673.70540295912,0.342596468495674
1676.63297650524,0.295838709289898
1679.55624443724,0.245666521708541
1682.4752067551,0.198891781926862
1686.36045889027,0.140399106191256
1689.26937477516,0.102826903229223
1692.17398504592,0.0768233675358742
1695.07428970255,0.0573322007326252
1697.97028874504,0.0530398616578595
1700.8619821734,0.0526289166855538
##END=
