##TITLE=Column 1
##JCAMP-DX=4.24
##DATA TYPE=INFRARED SPECTRUM
##Method:,Column 1,Built-In Reference,,,Model Name,NIR-X-XX
##Host Date-Time:,27/10/20 @ 14:36:54,9/7/19 @ 16:39:9,,,GUI Version,2.4.4
##Header Version:,1,1,,,Tiva Version,2.1.0.67
##System Temp (C):,54.04,27.52,,,DLPC Version,2.0.0
##Detector Temp (C),0,0,,,UUID,00:00:00:00:00:00:00:00
##Humidity (%):,13.86,73.2,,,Main Board Version,D
##Lamp PD:,2723,2274
##Shift Vector Coefficients:,-6.85384978732833,0.0551332794684546,-0.000110731550088635
##Pixel to Wavelength Coefficients:,1790.66412099084,-0.917492857141292,-0.000239200785115314
##Serial Number:,925R021,925R021
##Scan Config Name:,Column 1,SystemTest
##Scan Config Type:,Column,Column
##Start wavelength (nm):,900,900
##End wavelength (nm):,1700,1700
##Pattern Pixel Width (nm):,7.03,7.03
##Exposure (ms):,0.635,0.635
##Digital Resolution:,228,228
##NPOINTS=228
##Num Repeats:,6,30
##PGA Gain:,64,64
##Total Measurement Time in sec:,1.7871904
##XUNITS=Wavelength(nm)
##YUNITS=Absorbance(AU)
##FIRSTX=901.630473432251
##LASTX=1700.8619821734
##PEAK TABLE=X+(Y..Y)
901.630473432251,0.654434649807308
905.531115772228,0.646094252461129
909.427452498074,0.656105724499723
913.319483609787,0.658352153427755
917.207209107368,0.661713137380763
921.090628990817,0.674092346097745
924.969743260134,0.683829022748991
930.13519799724,0.683890692350945
934.004265833582,0.676864690339554
937.869028055792,0.670709100120448
941.72948466387,0.65996671281964
945.585635657816,0.651491334255022
949.43748103763,0.646803613420955
953.285020803312,0.643007124760659
957.128254954862,0.639409169999109
960.967183492279,0.63818979107704
966.07905725352,0.637768462765913
969.907939357962,0.635818911097178
973.732515848273,0.63559087131752
977.552786724452,0.634300775433411
981.368751986498,0.634194207514414
985.180411634413,0.634334840767203
988.987765668195,0.634166332539049
992.790814087846,0.636089129726141
996.589556893364,0.635482554904381
1001.64784967874,0.634676933762237
1005.43654605128,0.633650425230643
1009.22093680969,0.63313935463268
1013.00102195397,0.632568173686075
1016.77680148412,0.634866763780561
1020.54827540013,0.633023798813339
1024.31544370202,0.632846628393484
1028.07830638977,0.633171737660731
1031.83686346339,0.633833211330932
1036.8415752729,0.634213258367369
1040.59008591354,0.634040616629947
1044.33429094005,0.634002260235565
1048.07419035243,0.63530805300378
1051.80978415068,0.637110465740446
1055.5410723348,0.638566313697425
1059.26805490478,0.63831165349923
1062.99073186063,0.639344689060039
1066.70910320235,0.640113442068309
1071.66023403599,0.643854003075783
1075.36855894474,0.642866601728662
1079.07257823935,0.643521921706802
1082.77229191983,0.643009116491079
1086.46769998618,0.643745800966049
1090.1588024384,0.644895425003205
1093.84559927648,0.646221667185241
1097.52809050043,0.643800693521934
1101.20627611025,0.644504922038173
1106.10382596803,0.646074370574961
1109.77196514487,0.64574841113895
1113.43579870759,0.646619355520815
1117.09532665617,0.646621472515533
1120.75054899062,0.647760939000917
1124.40146571093,0.646972305387444
1128.04807681712,0.647796129305934
1131.69038230917,0.646202634321636
1135.32838218709,0.644154901027323
1140.172351069,0.644046017082698
1143.80030451395,0.645199072703671
1147.42395234476,0.645044345509476
1151.04329456145,0.645736413325878
1154.658331164,0.644715397308171
1158.26906215241,0.643324403111996
1161.8754875267,0.645332737514558
1165.47760728685,0.644101316952832
1169.07542143287,0.645631345070034
1173.86580933892,0.643367292008685
1177.45357705197,0.644610205862887
1181.03703915088,0.64522049702744
1184.61619563566,0.644298885768302
1188.19104650631,0.644061008817949
1191.76159176283,0.641888291197866
1195.32783140522,0.64313183902545
1198.88976543347,0.640959725257334
1202.44739384759,0.639865654544203
1207.18420077777,0.640634299055873
1210.73178275892,0.640049857617994
1214.27505912594,0.639756759470623
1217.81402987882,0.638642512007313
1221.34869501757,0.63774825843557
1224.87905454219,0.637571913049585
1228.40510845267,0.637572501446381
1231.92685674903,0.637105599321564
1235.44429943125,0.637157142181352
1240.12752538557,0.638085544049689
1243.63492163481,0.637309183116065
1247.13801226993,0.63700161329544
1250.63679729091,0.636280966168798
1254.13127669776,0.637886190707268
1257.62145049048,0.636226013568411
1261.10731866907,0.637430242411993
1264.58888123353,0.637696210914443
1268.06613818385,0.637593423288409
1272.6957831623,0.637354908446206
1276.16299367965,0.637914058268975
1279.62589858286,0.638069175204744
1283.08449787195,0.638090156955827
1286.5387915469,0.639037853179428
1289.98877960772,0.639345496976326
1293.43446205441,0.638288610515818
1296.87583888696,0.639668077498648
1300.31291010539,0.63895665423903
1304.88897410797,0.639759277408184
1308.31599889342,0.638935711663967
1311.73871806474,0.639564098135779
1315.15713162192,0.64084140752676
1318.57123956497,0.64003774720577
1321.98104189389,0.640532154529353
1325.38653860868,0.640675629184147
1328.78772970934,0.64045522721626
1332.18461519586,0.639569489627651
1336.70709822258,0.639507900933929
1340.09393727613,0.640624912813044
1343.47647071555,0.641810688583304
1346.85469854083,0.641587908979512
1350.22862075199,0.641036711121272
1353.59823734901,0.642579359792265
1356.9635483319,0.642635151363154
1360.32455370065,0.642879185459863
1363.68125345528,0.641895782853755
1368.15015550613,0.641578488978314
1371.49680882778,0.642227690868824
1374.8391565353,0.643967938740863
1378.17719862868,0.643632148560224
1381.51093510794,0.643526850609832
1384.84036597306,0.643271142625365
1388.16549122405,0.643487884829237
1391.48631086091,0.642822007314689
1394.80282488363,0.643280952186296
1399.21814595862,0.644897114629129
1402.52461354837,0.645315956637239
1405.82677552399,0.646666788933153
1409.12463188548,0.646979286389312
1412.41818263283,0.647832945150193
1415.70742776605,0.64907520392829
1418.99236728514,0.647350011569664
1422.2730011901,0.647743906324414
1425.54932948093,0.647297640024354
1429.91106958005,0.64698144755609
1433.1773514379,0.647086786162486
1436.43932768162,0.646811165063417
1439.6969983112,0.646523841624597
1442.95036332666,0.645913827495392
1446.19942272798,0.646715352743909
1449.44417651517,0.64620179911471
1452.68462468823,0.6457568711065
1456.99852463033,0.646195075631018
1460.22892637041,0.645232190451095
1463.45502249637,0.644520785636705
1466.67681300819,0.644890706093338
1469.89429790587,0.644489052104099
1473.10747718943,0.645192638920086
1476.31635085885,0.644160478216745
1479.52091891415,0.643900492631416
1482.72118135531,0.645265291892084
1486.98150032154,0.644569313659237
1490.17171632972,0.643976724530295
1493.35762672377,0.643607855832853
1496.53923150369,0.643771195799729
1499.71653066948,0.644039372849637
1502.88952422114,0.643550765269838
1506.05821215866,0.643313616211527
1509.22259448206,0.641926034458629
1512.38267119132,0.643271213796507
1516.58940918168,0.64238054146659
1519.73943945797,0.641115348352824
1522.88516412012,0.640880853107211
1526.02658316814,0.640756509217094
1529.16369660203,0.640087724873727
1532.29650442179,0.639818628012392
1535.42500662741,0.638631850463944
1538.54920321891,0.638654672259236
1541.66909419627,0.638123258713911
1545.82225121076,0.637403096056517
1548.93209575515,0.636532252638125
1552.0376346854,0.635407219166722
1555.13886800153,0.633989906397539
1558.23579570352,0.635047037875007
1561.32841779137,0.632462170191652
1564.4167342651,0.633243506519031
1567.50074512469,0.631929766170258
1570.58045037016,0.631167116830921
1574.68002640879,0.630555983096339
1577.74968522127,0.629538440420225
1580.81503841963,0.627868825575905
1583.87608600385,0.628861164701855
1586.93282797394,0.626160661883936
1589.9852643299,0.626481828690306
1593.03339507173,0.627001529892195
1596.07722019942,0.621962663859857
1599.11673971298,0.622494470818365
1603.16273477575,0.620829700672459
1606.19220785634,0.621588234766244
1609.21737532279,0.620558933472907
1612.23823717512,0.618800441452045
1615.25479341331,0.618243436207765
1618.26704403737,0.618854411543273
1621.27498904729,0.61615660310567
1624.27862844309,0.613083239461592
1627.27796222475,0.613657087847311
1631.27037631165,0.611373832864936
1634.25966366034,0.61306050271889
1637.2446453949,0.611914570183463
1640.22532151532,0.615107981472259
1643.20169202161,0.612810021773115
1646.17375691377,0.614549995601517
1649.1415161918,0.61739380297192
1652.10496985569,0.61433770314022
1655.06411790546,0.613087876578789
1659.00295101649,0.608172407515452
1661.95205263328,0.592821109452252
1664.89684863594,0.574311195179579
1667.83733902446,0.544700605422645
1670.77352379886,0.513675789488389
1673.70540295912,0.467277677007048
1676.63297650524,0.421735547995684
1679.55624443724,0.372285354222189
1682.4752067551,0.324335833082118
1686.36045889027,0.263271176792366
1689.26937477516,0.230697959224489
1692.17398504592,0.201751997573961
1695.07428970255,0.187893588513958
1697.97028874504,0.177235342717817
1700.8619821734,0.187466344587171
##END=
