##TITLE=Column 1
##JCAMP-DX=4.24
##DATA TYPE=INFRARED SPECTRUM
##Method:,Column 1,Built-In Reference,,,Model Name,NIR-X-XX
##Host Date-Time:,27/10/20 @ 14:36:43,9/7/19 @ 16:39:9,,,GUI Version,2.4.4
##Header Version:,1,1,,,Tiva Version,2.1.0.67
##System Temp (C):,54.02,27.52,,,DLPC Version,2.0.0
##Detector Temp (C),0,0,,,UUID,00:00:00:00:00:00:00:00
##Humidity (%):,13.86,73.2,,,Main Board Version,D
##Lamp PD:,2723,2274
##Shift Vector Coefficients:,-6.85384978732833,0.0551332794684546,-0.000110731550088635
##Pixel to Wavelength Coefficients:,1790.66412099084,-0.917492857141292,-0.000239200785115314
##Serial Number:,925R021,925R021
##Scan Config Name:,Column 1,SystemTest
##Scan Config Type:,Column,Column
##Start wavelength (nm):,900,900
##End wavelength (nm):,1700,1700
##Pattern Pixel Width (nm):,7.03,7.03
##Exposure (ms):,0.635,0.635
##Digital Resolution:,228,228
##NPOINTS=228
##Num Repeats:,6,30
##PGA Gain:,64,64
##Total Measurement Time in sec:,1.8111482
##XUNITS=Wavelength(nm)
##YUNITS=Absorbance(AU)
##FIRSTX=901.630473432251
##LASTX=1700.8619821734
##PEAK TABLE=X+(Y..Y)
901.630473432251,0.659394540268292
905.531115772228,0.664680885700663
909.427452498074,0.664768457874208
913.319483609787,0.669650806186198
917.207209107368,0.67617822005978
921.090628990817,0.690610312222919
924.969743260134,0.697052745004333
930.13519799724,0.702339446520835
934.004265833582,0.693469620494215
937.869028055792,0.685957205552981
941.72948466387,0.678052059394401
945.585635657816,0.669451446245541
949.43748103763,0.662833296132173
953.285020803312,0.659362382952647
957.128254954862,0.656774654821185
960.967183492279,0.653838541523496
966.07905725352,0.653828695805283
969.907939357962,0.654427469882025
973.732515848273,0.652765845832715
977.552786724452,0.654637729611355
981.368751986498,0.65295014843106
985.180411634413,0.65563982025849
988.987765668195,0.655116312249085
992.790814087846,0.656238568960874
996.589556893364,0.655262752014261
1001.64784967874,0.657511618765699
1005.43654605128,0.657254026703018
1009.22093680969,0.654990013840822
1013.00102195397,0.655004421677207
1016.77680148412,0.655096735800227
1020.54827540013,0.657250065002296
1024.31544370202,0.656376978774767
1028.07830638977,0.656432331964678
1031.83686346339,0.656991902680154
1036.8415752729,0.657576097188225
1040.59008591354,0.655258746258403
1044.33429094005,0.656917563004688
1048.07419035243,0.6558499642988
1051.80978415068,0.6574095341509
1055.5410723348,0.660091884160008
1059.26805490478,0.657661999902294
1062.99073186063,0.656857214776048
1066.70910320235,0.659881086211466
1071.66023403599,0.658299205261003
1075.36855894474,0.657877118858088
1079.07257823935,0.658877651358251
1082.77229191983,0.658476116758809
1086.46769998618,0.658000738476317
1090.1588024384,0.657147897924
1093.84559927648,0.657881155899534
1097.52809050043,0.657911620554053
1101.20627611025,0.65663057887685
1106.10382596803,0.656719023191557
1109.77196514487,0.656676428873738
1113.43579870759,0.653045830412863
1117.09532665617,0.653924386221868
1120.75054899062,0.656193683403671
1124.40146571093,0.654656386406588
1128.04807681712,0.654406901007149
1131.69038230917,0.655240587079994
1135.32838218709,0.655401277766598
1140.172351069,0.653126339844973
1143.80030451395,0.653817373110909
1147.42395234476,0.653764885590567
1151.04329456145,0.65039268779716
1154.658331164,0.652535315318384
1158.26906215241,0.652193082436846
1161.8754875267,0.65357890837967
1165.47760728685,0.652545446328462
1169.07542143287,0.651856375218574
1173.86580933892,0.652873209690569
1177.45357705197,0.65172868451472
1181.03703915088,0.650452487471292
1184.61619563566,0.651109101756469
1188.19104650631,0.650610758950199
1191.76159176283,0.650588192978939
1195.32783140522,0.648674722269003
1198.88976543347,0.648417345454817
1202.44739384759,0.64775770332606
1207.18420077777,0.647037235228263
1210.73178275892,0.647060674440251
1214.27505912594,0.646673662819217
1217.81402987882,0.644101903552811
1221.34869501757,0.644929350833428
1224.87905454219,0.645069268002018
1228.40510845267,0.644029592726854
1231.92685674903,0.643803345596673
1235.44429943125,0.644383596679354
1240.12752538557,0.643244506438843
1243.63492163481,0.643963559219791
1247.13801226993,0.643026002489487
1250.63679729091,0.643395005963785
1254.13127669776,0.644263231680908
1257.62145049048,0.642769206900692
1261.10731866907,0.643470488580436
1264.58888123353,0.643615538171592
1268.06613818385,0.644136600272841
1272.6957831623,0.64509209274231
1276.16299367965,0.644385858490709
1279.62589858286,0.644953659113977
1283.08449787195,0.644512988865527
1286.5387915469,0.645516667934899
1289.98877960772,0.646092439926628
1293.43446205441,0.647283987172768
1296.87583888696,0.645652294697684
1300.31291010539,0.646067054227035
1304.88897410797,0.646884398769679
1308.31599889342,0.646117826634247
1311.73871806474,0.64701300712403
1315.15713162192,0.647423801714779
1318.57123956497,0.647825914927656
1321.98104189389,0.646737684988804
1325.38653860868,0.647237082868105
1328.78772970934,0.64695842324188
1332.18461519586,0.646520916069323
1336.70709822258,0.647199452762203
1340.09393727613,0.647248457465727
1343.47647071555,0.64746792732264
1346.85469854083,0.648098631583926
1350.22862075199,0.648250838203714
1353.59823734901,0.649546874608183
1356.9635483319,0.648160214036845
1360.32455370065,0.648681137038159
1363.68125345528,0.65023607613913
1368.15015550613,0.649096175595342
1371.49680882778,0.64989385888334
1374.8391565353,0.649000648016711
1378.17719862868,0.650050371488017
1381.51093510794,0.649819732245562
1384.84036597306,0.649630226000208
1388.16549122405,0.6496801586621
1391.48631086091,0.649768851859802
1394.80282488363,0.651643390423378
1399.21814595862,0.652140538463343
1402.52461354837,0.652535567988056
1405.82677552399,0.653895442232822
1409.12463188548,0.654176334293496
1412.41818263283,0.655806798717323
1415.70742776605,0.655645645095191
1418.99236728514,0.655803485866884
1422.2730011901,0.655429083437408
1425.54932948093,0.655883754366789
1429.91106958005,0.654489844901434
1433.1773514379,0.654359262875557
1436.43932768162,0.653621299016194
1439.6969983112,0.654007143636528
1442.95036332666,0.652958140442712
1446.19942272798,0.654092057817139
1449.44417651517,0.654259011965622
1452.68462468823,0.65353955242321
1456.99852463033,0.653264203701966
1460.22892637041,0.653083514878639
1463.45502249637,0.652738767955659
1466.67681300819,0.652300109254057
1469.89429790587,0.652430024395119
1473.10747718943,0.652320430841874
1476.31635085885,0.653020171410245
1479.52091891415,0.652649491573195
1482.72118135531,0.651876749581197
1486.98150032154,0.650968408777582
1490.17171632972,0.65141433830122
1493.35762672377,0.652446436637092
1496.53923150369,0.651066826555191
1499.71653066948,0.651277581703242
1502.88952422114,0.649703547932004
1506.05821215866,0.650300877366812
1509.22259448206,0.649272519377725
1512.38267119132,0.649781212041493
1516.58940918168,0.649631503713288
1519.73943945797,0.651013259090141
1522.88516412012,0.648886420535822
1526.02658316814,0.649875787803645
1529.16369660203,0.64814296620448
1532.29650442179,0.647800916715217
1535.42500662741,0.648211202835089
1538.54920321891,0.645960309189988
1541.66909419627,0.646323926880095
1545.82225121076,0.646134275576824
1548.93209575515,0.645617172717253
1552.0376346854,0.645664430563952
1555.13886800153,0.644831661072859
1558.23579570352,0.644353997381518
1561.32841779137,0.644976146844833
1564.4167342651,0.643460429616896
1567.50074512469,0.643643843816395
1570.58045037016,0.642958504824406
1574.68002640879,0.64267212267173
1577.74968522127,0.642586422976466
1580.81503841963,0.642535488069672
1583.87608600385,0.642261220037587
1586.93282797394,0.643012181953444
1589.9852643299,0.640371451016059
1593.03339507173,0.641704328827804
1596.07722019942,0.641730164632906
1599.11673971298,0.641895487419552
1603.16273477575,0.640440299041394
1606.19220785634,0.639871833523953
1609.21737532279,0.641824709575694
1612.23823717512,0.640990689337389
1615.25479341331,0.642198880438775
1618.26704403737,0.640548938948482
1621.27498904729,0.638983985260461
1624.27862844309,0.64181730009637
1627.27796222475,0.641116425242231
1631.27037631165,0.639167678747407
1634.25966366034,0.641610242261041
1637.2446453949,0.644048165345426
1640.22532151532,0.645252757728732
1643.20169202161,0.646528455332998
1646.17375691377,0.648050728448497
1649.1415161918,0.652331031185921
1652.10496985569,0.651204085043607
1655.06411790546,0.651536417308625
1659.00295101649,0.644855033670165
1661.95205263328,0.631421448664962
1664.89684863594,0.613834381180384
1667.83733902446,0.591780711369025
1670.77352379886,0.55141024719486
1673.70540295912,0.509664908744261
1676.63297650524,0.460017937743837
1679.55624443724,0.415511077274696
1682.4752067551,0.363614781325439
1686.36045889027,0.305688332336524
1689.26937477516,0.274956143652701
1692.17398504592,0.252965162970809
1695.07428970255,0.231670895255091
1697.97028874504,0.219996256108389
1700.8619821734,0.21656245790002
##END=
