##TITLE=Column 1
##JCAMP-DX=4.24
##DATA TYPE=INFRARED SPECTRUM
##Method:,Column 1,Built-In Reference,,,Model Name,NIR-X-XX
##Host Date-Time:,27/10/20 @ 14:36:33,9/7/19 @ 16:39:9,,,GUI Version,2.4.4
##Header Version:,1,1,,,Tiva Version,2.1.0.67
##System Temp (C):,54.01,27.52,,,DLPC Version,2.0.0
##Detector Temp (C),0,0,,,UUID,00:00:00:00:00:00:00:00
##Humidity (%):,13.86,73.2,,,Main Board Version,D
##Lamp PD:,2725,2274
##Shift Vector Coefficients:,-6.85384978732833,0.0551332794684546,-0.000110731550088635
##Pixel to Wavelength Coefficients:,1790.66412099084,-0.917492857141292,-0.000239200785115314
##Serial Number:,925R021,925R021
##Scan Config Name:,Column 1,SystemTest
##Scan Config Type:,Column,Column
##Start wavelength (nm):,900,900
##End wavelength (nm):,1700,1700
##Pattern Pixel Width (nm):,7.03,7.03
##Exposure (ms):,0.635,0.635
##Digital Resolution:,228,228
##NPOINTS=228
##Num Repeats:,6,30
##PGA Gain:,64,64
##Total Measurement Time in sec:,1.8261246
##XUNITS=Wavelength(nm)
##YUNITS=Reflectance(AU)
##FIRSTX=901.630473432251
##LASTX=1700.8619821734
##PEAK TABLE=X+(Y..Y)
901.630473432251,0.311472520586306
905.531115772228,0.311113114015322
909.427452498074,0.312447702245875
913.319483609787,0.304279825879271
917.207209107368,0.301063101574396
921.090628990817,0.294577079639388
924.969743260134,0.285739568066809
930.13519799724,0.284464331518796
934.004265833582,0.28736182867403
937.869028055792,0.291068657098514
941.72948466387,0.297562903438282
945.585635657816,0.300060541578452
949.43748103763,0.305666389676746
953.285020803312,0.307554360749293
957.128254954862,0.309715381015
960.967183492279,0.310496330481142
966.07905725352,0.310193492213836
969.907939357962,0.310721215350294
973.732515848273,0.309679703686492
977.552786724452,0.30952778196379
981.368751986498,0.310269176705508
985.180411634413,0.309288207384713
988.987765668195,0.308597828225005
992.790814087846,0.30933455759185
996.589556893364,0.308837222979132
1001.64784967874,0.309037408649092
1005.43654605128,0.309090647950439
1009.22093680969,0.309520293796829
1013.00102195397,0.309387993254477
1016.77680148412,0.309463895484689
1020.54827540013,0.30902379832743
1024.31544370202,0.309533157678135
1028.07830638977,0.309780110963181
1031.83686346339,0.309386916357993
1036.8415752729,0.309111297876038
1040.59008591354,0.3098246469514
1044.33429094005,0.310428947020901
1048.07419035243,0.310322829148511
1051.80978415068,0.310365219322277
1055.5410723348,0.308843106027234
1059.26805490478,0.309691553006594
1062.99073186063,0.309654225925161
1066.70910320235,0.308108200092865
1071.66023403599,0.309013480600672
1075.36855894474,0.308552601273787
1079.07257823935,0.308558025383237
1082.77229191983,0.30825038367724
1086.46769998618,0.308724623315304
1090.1588024384,0.308343303288417
1093.84559927648,0.308397481252559
1097.52809050043,0.307759243101628
1101.20627611025,0.3073184977513
1106.10382596803,0.307489937974926
1109.77196514487,0.306996884164223
1113.43579870759,0.307191888171613
1117.09532665617,0.307071394296296
1120.75054899062,0.306746518056015
1124.40146571093,0.306040086794077
1128.04807681712,0.305659455211115
1131.69038230917,0.306724020729647
1135.32838218709,0.307526279940477
1140.172351069,0.307989187565701
1143.80030451395,0.307894148817314
1147.42395234476,0.308168026772801
1151.04329456145,0.307926063589331
1154.658331164,0.309746790817279
1158.26906215241,0.307481033955024
1161.8754875267,0.308026904187402
1165.47760728685,0.308582307552834
1169.07542143287,0.307259161186637
1173.86580933892,0.307595205511774
1177.45357705197,0.307380125465244
1181.03703915088,0.307516339869281
1184.61619563566,0.306740821784585
1188.19104650631,0.308079661115563
1191.76159176283,0.307987827930526
1195.32783140522,0.307685127737727
1198.88976543347,0.30835700522437
1202.44739384759,0.308614312325642
1207.18420077777,0.308581719567358
1210.73178275892,0.309420218457385
1214.27505912594,0.309892985637591
1217.81402987882,0.309542570816665
1221.34869501757,0.309160476631335
1224.87905454219,0.309109703672103
1228.40510845267,0.309172700342899
1231.92685674903,0.309014010044938
1235.44429943125,0.308962529314798
1240.12752538557,0.309399102915058
1243.63492163481,0.308304446911343
1247.13801226993,0.309006461353862
1250.63679729091,0.309232348399241
1254.13127669776,0.3087681727695
1257.62145049048,0.309072382709071
1261.10731866907,0.309167875086054
1264.58888123353,0.308647387440912
1268.06613818385,0.308132870255802
1272.6957831623,0.308016671095509
1276.16299367965,0.308403828906138
1279.62589858286,0.307856996096158
1283.08449787195,0.307308658998008
1286.5387915469,0.307368755528687
1289.98877960772,0.306674704399456
1293.43446205441,0.307178174440898
1296.87583888696,0.306958449923447
1300.31291010539,0.306007261149174
1304.88897410797,0.306461453242354
1308.31599889342,0.306498898811811
1311.73871806474,0.306046203591881
1315.15713162192,0.306084192404223
1318.57123956497,0.306303600670555
1321.98104189389,0.305837699617732
1325.38653860868,0.305506861454553
1328.78772970934,0.305737445502987
1332.18461519586,0.305374089690527
1336.70709822258,0.305249544108328
1340.09393727613,0.305081036846937
1343.47647071555,0.304417398617081
1346.85469854083,0.304067488718048
1350.22862075199,0.303749678306002
1353.59823734901,0.303628461123443
1356.9635483319,0.302874617252457
1360.32455370065,0.302414307162741
1363.68125345528,0.302473761119526
1368.15015550613,0.302707929070577
1371.49680882778,0.302772377469856
1374.8391565353,0.301732794356188
1378.17719862868,0.301544304351633
1381.51093510794,0.301432234903685
1384.84036597306,0.301325893256918
1388.16549122405,0.301012489107515
1391.48631086091,0.300328285200971
1394.80282488363,0.300384597748584
1399.21814595862,0.29936205686585
1402.52461354837,0.298576987407812
1405.82677552399,0.298216436894145
1409.12463188548,0.297598217855053
1412.41818263283,0.297396287204442
1415.70742776605,0.296888147395909
1418.99236728514,0.296682813953927
1422.2730011901,0.29714924701201
1425.54932948093,0.29731527734
1429.91106958005,0.29794203041761
1433.1773514379,0.298338905185527
1436.43932768162,0.299278171522965
1439.6969983112,0.299260501905076
1442.95036332666,0.299211304872464
1446.19942272798,0.300237224976837
1449.44417651517,0.300348167318267
1452.68462468823,0.300985207316185
1456.99852463033,0.300278768744606
1460.22892637041,0.300563857234217
1463.45502249637,0.300557469280431
1466.67681300819,0.300676616710119
1469.89429790587,0.300844531396723
1473.10747718943,0.300751221105453
1476.31635085885,0.300730101199931
1479.52091891415,0.301303092709336
1482.72118135531,0.302203008141716
1486.98150032154,0.301883929316611
1490.17171632972,0.301626336453506
1493.35762672377,0.301908352980026
1496.53923150369,0.301905228672277
1499.71653066948,0.30217120816225
1502.88952422114,0.301677141295513
1506.05821215866,0.302676685371545
1509.22259448206,0.303154900028609
1512.38267119132,0.302965185035623
1516.58940918168,0.303000507845647
1519.73943945797,0.302557870616463
1522.88516412012,0.302808288701651
1526.02658316814,0.30297410776767
1529.16369660203,0.302916061046512
1532.29650442179,0.302933948764662
1535.42500662741,0.302949710694847
1538.54920321891,0.303753738627798
1541.66909419627,0.303479895304513
1545.82225121076,0.303267267202974
1548.93209575515,0.303598260467535
1552.0376346854,0.303315521344161
1555.13886800153,0.304395783969279
1558.23579570352,0.303913501136409
1561.32841779137,0.304069103314957
1564.4167342651,0.305086291540053
1567.50074512469,0.304794371995631
1570.58045037016,0.305061559507524
1574.68002640879,0.305235071921389
1577.74968522127,0.305564684776716
1580.81503841963,0.305292172230988
1583.87608600385,0.305027234574516
1586.93282797394,0.306046294547111
1589.9852643299,0.304810309329835
1593.03339507173,0.305448969270671
1596.07722019942,0.305514433314463
1599.11673971298,0.305760615964589
1603.16273477575,0.305677694983605
1606.19220785634,0.306157769388052
1609.21737532279,0.304394728937298
1612.23823717512,0.306051982647488
1615.25479341331,0.305985741705511
1618.26704403737,0.306022477846758
1621.27498904729,0.306072221101473
1624.27862844309,0.305396996279361
1627.27796222475,0.305039441351303
1631.27037631165,0.30442757907742
1634.25966366034,0.30345829361451
1637.2446453949,0.30157946198846
1640.22532151532,0.299158930222487
1643.20169202161,0.296407599431566
1646.17375691377,0.292370771708889
1649.1415161918,0.289945112428548
1652.10496985569,0.286696193129792
1655.06411790546,0.284643934501279
1659.00295101649,0.288498736603642
1661.95205263328,0.296977260122019
1664.89684863594,0.312292045330393
1667.83733902446,0.334555742967517
1670.77352379886,0.362775468471374
1673.70540295912,0.40123788082609
1676.63297650524,0.449102379850437
1679.55624443724,0.503738979096142
1682.4752067551,0.560549991512477
1686.36045889027,0.64422845322263
1689.26937477516,0.707767427133501
1692.17398504592,0.748722848340678
1695.07428970255,0.779117198003783
1697.97028874504,0.791803278688525
1700.8619821734,0.794649401417054
##END=
