##TITLE=Column 1
##JCAMP-DX=4.24
##DATA TYPE=INFRARED SPECTRUM
##Method:,Column 1,Built-In Reference,,,Model Name,NIR-X-XX
##Host Date-Time:,27/10/20 @ 14:36:7,9/7/19 @ 16:39:9,,,GUI Version,2.4.4
##Header Version:,1,1,,,Tiva Version,2.1.0.67
##System Temp (C):,53.99,27.52,,,DLPC Version,2.0.0
##Detector Temp (C),0,0,,,UUID,00:00:00:00:00:00:00:00
##Humidity (%):,13.86,73.2,,,Main Board Version,D
##Lamp PD:,2725,2274
##Shift Vector Coefficients:,-6.85384978732833,0.0551332794684546,-0.000110731550088635
##Pixel to Wavelength Coefficients:,1790.66412099084,-0.917492857141292,-0.000239200785115314
##Serial Number:,925R021,925R021
##Scan Config Name:,Column 1,SystemTest
##Scan Config Type:,Column,Column
##Start wavelength (nm):,900,900
##End wavelength (nm):,1700,1700
##Pattern Pixel Width (nm):,7.03,7.03
##Exposure (ms):,0.635,0.635
##Digital Resolution:,228,228
##NPOINTS=228
##Num Repeats:,6,30
##PGA Gain:,64,64
##Total Measurement Time in sec:,1.8271262
##XUNITS=Wavelength(nm)
##YUNITS=Reflectance(AU)
##FIRSTX=901.630473432251
##LASTX=1700.8619821734
##PEAK TABLE=X+(Y..Y)
901.630473432251,0.316818595725098
905.531115772228,0.316746282109058
909.427452498074,0.313184054623958
913.319483609787,0.310011941908394
917.207209107368,0.302355307824483
921.090628990817,0.294939190370352
924.969743260134,0.289527970577662
930.13519799724,0.282968050845042
934.004265833582,0.287905665833646
937.869028055792,0.291072657162515
941.72948466387,0.297329544385268
945.585635657816,0.303639301156738
949.43748103763,0.307633933783385
953.285020803312,0.309037226875215
957.128254954862,0.311504796716645
960.967183492279,0.31211971209573
966.07905725352,0.313273248186562
969.907939357962,0.312393689614989
973.732515848273,0.312268850844654
977.552786724452,0.311938924888592
981.368751986498,0.312812495894694
985.180411634413,0.310691539398675
988.987765668195,0.312019912140454
992.790814087846,0.31106423634807
996.589556893364,0.311655215000539
1001.64784967874,0.311048937555775
1005.43654605128,0.311324051820715
1009.22093680969,0.311628028827147
1013.00102195397,0.310986615687846
1016.77680148412,0.312507686340545
1020.54827540013,0.3116987766464
1024.31544370202,0.312054456265167
1028.07830638977,0.313091949720697
1031.83686346339,0.312144214775038
1036.8415752729,0.313499215507944
1040.59008591354,0.313601334748396
1044.33429094005,0.313619938293096
1048.07419035243,0.314167408940995
1051.80978415068,0.313466843994313
1055.5410723348,0.314702849757236
1059.26805490478,0.314536359093048
1062.99073186063,0.314062936468416
1066.70910320235,0.314149299013733
1071.66023403599,0.314640525417714
1075.36855894474,0.314528778992947
1079.07257823935,0.314394140694826
1082.77229191983,0.314309838013634
1086.46769998618,0.314545188994797
1090.1588024384,0.315161799263097
1093.84559927648,0.315993478327745
1097.52809050043,0.314863984534664
1101.20627611025,0.315614742129548
1106.10382596803,0.315699070895376
1109.77196514487,0.315556268328446
1113.43579870759,0.315859769310794
1117.09532665617,0.315776312439878
1120.75054899062,0.315365279852582
1124.40146571093,0.314999045975124
1128.04807681712,0.314243193441223
1131.69038230917,0.315008010771373
1135.32838218709,0.31542219272101
1140.172351069,0.314871387810268
1143.80030451395,0.316593779593748
1147.42395234476,0.315997170697719
1151.04329456145,0.315866358598289
1154.658331164,0.315912154455528
1158.26906215241,0.316275362527245
1161.8754875267,0.316120132974719
1165.47760728685,0.315587162801942
1169.07542143287,0.315781288009603
1173.86580933892,0.31464418857062
1177.45357705197,0.314810421471436
1181.03703915088,0.314257977700884
1184.61619563566,0.314279798808655
1188.19104650631,0.314780023535727
1191.76159176283,0.314981949458484
1195.32783140522,0.315062601460853
1198.88976543347,0.315262636094562
1202.44739384759,0.315725019385545
1207.18420077777,0.316584270292808
1210.73178275892,0.315924848447134
1214.27505912594,0.316529138511352
1217.81402987882,0.316885211675489
1221.34869501757,0.316787974183854
1224.87905454219,0.315846815213468
1228.40510845267,0.31694139609653
1231.92685674903,0.317123655267985
1235.44429943125,0.316148514584953
1240.12752538557,0.316751516210893
1243.63492163481,0.316559109195313
1247.13801226993,0.316521947274984
1250.63679729091,0.317127253565957
1254.13127669776,0.317020570670206
1257.62145049048,0.317240353434683
1261.10731866907,0.317045304741398
1264.58888123353,0.31687715766492
1268.06613818385,0.317020374842488
1272.6957831623,0.316469699724479
1276.16299367965,0.316124201388504
1279.62589858286,0.316042736798849
1283.08449787195,0.316195111094222
1286.5387915469,0.315799961492735
1289.98877960772,0.315638291331278
1293.43446205441,0.315339656811459
1296.87583888696,0.314914735230452
1300.31291010539,0.31493789668362
1304.88897410797,0.314562601982894
1308.31599889342,0.314395414472647
1311.73871806474,0.314494786188269
1315.15713162192,0.314413463732343
1318.57123956497,0.314135366571952
1321.98104189389,0.313590359140627
1325.38653860868,0.313740865280898
1328.78772970934,0.313697400290651
1332.18461519586,0.313288644042821
1336.70709822258,0.313418088229588
1340.09393727613,0.313168536183337
1343.47647071555,0.313084002990095
1346.85469854083,0.31251528984338
1350.22862075199,0.312350828696803
1353.59823734901,0.311849962522136
1356.9635483319,0.311697451518645
1360.32455370065,0.311818250606331
1363.68125345528,0.311662702391365
1368.15015550613,0.311149672991381
1371.49680882778,0.310578440295332
1374.8391565353,0.310779588070049
1378.17719862868,0.311105912354435
1381.51093510794,0.310564825617201
1384.84036597306,0.310310233276619
1388.16549122405,0.310739107162276
1391.48631086091,0.309530520843121
1394.80282488363,0.309768840131142
1399.21814595862,0.308828170369869
1402.52461354837,0.307711306970335
1405.82677552399,0.306931065351036
1409.12463188548,0.306571224963934
1412.41818263283,0.305997514749829
1415.70742776605,0.305715943711011
1418.99236728514,0.305736811314811
1422.2730011901,0.305788640555338
1425.54932948093,0.306056640196615
1429.91106958005,0.307096957948366
1433.1773514379,0.307185582632675
1436.43932768162,0.306989405233111
1439.6969983112,0.30804231435138
1442.95036332666,0.307862963312956
1446.19942272798,0.308249931276026
1449.44417651517,0.308133898862634
1452.68462468823,0.308818771405669
1456.99852463033,0.308760114311248
1460.22892637041,0.308438541317579
1463.45502249637,0.308216612437661
1466.67681300819,0.308359480813473
1469.89429790587,0.308951204688325
1473.10747718943,0.308845405822706
1476.31635085885,0.309319790291668
1479.52091891415,0.309680117269351
1482.72118135531,0.309496659712442
1486.98150032154,0.310049393394487
1490.17171632972,0.30958552386535
1493.35762672377,0.309770613667954
1496.53923150369,0.310543151736475
1499.71653066948,0.310373895732238
1502.88952422114,0.310450458633699
1506.05821215866,0.310443127337781
1509.22259448206,0.31033249626498
1512.38267119132,0.310751519929748
1516.58940918168,0.310876171655074
1519.73943945797,0.311097190578453
1522.88516412012,0.3106249535803
1526.02658316814,0.310663467626379
1529.16369660203,0.311145766042205
1532.29650442179,0.310474455407854
1535.42500662741,0.311115498858232
1538.54920321891,0.310416398898125
1541.66909419627,0.311597308834121
1545.82225121076,0.311206621242857
1548.93209575515,0.311219550957899
1552.0376346854,0.311192609459467
1555.13886800153,0.311593341702011
1558.23579570352,0.311114207649244
1561.32841779137,0.310798730100515
1564.4167342651,0.310915385003473
1567.50074512469,0.311707132407163
1570.58045037016,0.31148228233529
1574.68002640879,0.31149982232757
1577.74968522127,0.310649370223295
1580.81503841963,0.311255393694315
1583.87608600385,0.310567798954175
1586.93282797394,0.310002333618553
1589.9852643299,0.310812129851793
1593.03339507173,0.309907807374482
1596.07722019942,0.309048445816151
1599.11673971298,0.309637045094985
1603.16273477575,0.308787051501525
1606.19220785634,0.310384965883767
1609.21737532279,0.308563517872768
1612.23823717512,0.30911702247161
1615.25479341331,0.308472717301892
1618.26704403737,0.308506901019344
1621.27498904729,0.307830196835644
1624.27862844309,0.307449558432955
1627.27796222475,0.306621955331189
1631.27037631165,0.306706294676063
1634.25966366034,0.306713615936813
1637.2446453949,0.305243626922602
1640.22532151532,0.303685652318871
1643.20169202161,0.302247863944517
1646.17375691377,0.302390540342656
1649.1415161918,0.30061558988977
1652.10496985569,0.299876994902952
1655.06411790546,0.299583888557344
1659.00295101649,0.30516685545003
1661.95205263328,0.312252726936587
1664.89684863594,0.325829583941678
1667.83733902446,0.347080907557539
1670.77352379886,0.374691895247427
1673.70540295912,0.414717956939033
1676.63297650524,0.459113828465642
1679.55624443724,0.514391722607914
1682.4752067551,0.573349176710236
1686.36045889027,0.65243202652347
1689.26937477516,0.709467228823304
1692.17398504592,0.752115587099793
1695.07428970255,0.783629195816147
1697.97028874504,0.810708619777895
1700.8619821734,0.800482531150745
##END=
