##TITLE=Column 1
##JCAMP-DX=4.24
##DATA TYPE=INFRARED SPECTRUM
##Method:,Column 1,Built-In Reference,,,Model Name,NIR-X-XX
##Host Date-Time:,27/10/20 @ 14:36:37,9/7/19 @ 16:39:9,,,GUI Version,2.4.4
##Header Version:,1,1,,,Tiva Version,2.1.0.67
##System Temp (C):,54.02,27.52,,,DLPC Version,2.0.0
##Detector Temp (C),0,0,,,UUID,00:00:00:00:00:00:00:00
##Humidity (%):,13.86,73.2,,,Main Board Version,D
##Lamp PD:,2724,2274
##Shift Vector Coefficients:,-6.85384978732833,0.0551332794684546,-0.000110731550088635
##Pixel to Wavelength Coefficients:,1790.66412099084,-0.917492857141292,-0.000239200785115314
##Serial Number:,925R021,925R021
##Scan Config Name:,Column 1,SystemTest
##Scan Config Type:,Column,Column
##Start wavelength (nm):,900,900
##End wavelength (nm):,1700,1700
##Pattern Pixel Width (nm):,7.03,7.03
##Exposure (ms):,0.635,0.635
##Digital Resolution:,228,228
##NPOINTS=228
##Num Repeats:,6,30
##PGA Gain:,64,64
##Total Measurement Time in sec:,1.8101528
##XUNITS=Wavelength(nm)
##YUNITS=Absorbance(AU)
##FIRSTX=901.630473432251
##LASTX=1700.8619821734
##PEAK TABLE=X+(Y..Y)
901.630473432251,0.614163374337732
905.531115772228,0.627074728330522
909.427452498074,0.630192418017315
913.319483609787,0.63646979485344
917.207209107368,0.640389956157296
921.090628990817,0.650424645400763
924.969743260134,0.662543637530028
930.13519799724,0.669101686617258
934.004265833582,0.662031887229165
937.869028055792,0.655027337344555
941.72948466387,0.646657542713694
945.585635657816,0.640060332901874
949.43748103763,0.633346487416183
953.285020803312,0.626516549455529
957.128254954862,0.625347077643577
960.967183492279,0.625260324918717
966.07905725352,0.623841678224707
969.907939357962,0.622662175941853
973.732515848273,0.622259315768831
977.552786724452,0.622597417221033
981.368751986498,0.62340381788698
985.180411634413,0.623763728620133
988.987765668195,0.622549580771608
992.790814087846,0.623743179432276
996.589556893364,0.62406246706856
1001.64784967874,0.623630739531587
1005.43654605128,0.623436252291019
1009.22093680969,0.622706195719978
1013.00102195397,0.621699113972873
1016.77680148412,0.620742971813552
1020.54827540013,0.619987385355493
1024.31544370202,0.620339167936433
1028.07830638977,0.620510743876621
1031.83686346339,0.621020616732
1036.8415752729,0.618232289853765
1040.59008591354,0.618723593018853
1044.33429094005,0.617390091615445
1048.07419035243,0.618464723199425
1051.80978415068,0.617904927531597
1055.5410723348,0.618419682435835
1059.26805490478,0.618358023263121
1062.99073186063,0.618206627278519
1066.70910320235,0.619664545815404
1071.66023403599,0.619641170438954
1075.36855894474,0.618667279944452
1079.07257823935,0.618521912673576
1082.77229191983,0.619303072516114
1086.46769998618,0.618951977628699
1090.1588024384,0.619261038676178
1093.84559927648,0.616375869776764
1097.52809050043,0.618294009381337
1101.20627611025,0.61843799777442
1106.10382596803,0.61622286213446
1109.77196514487,0.618287259335874
1113.43579870759,0.616806856310261
1117.09532665617,0.617681697602448
1120.75054899062,0.617328679188114
1124.40146571093,0.619846093469353
1128.04807681712,0.620731708233681
1131.69038230917,0.620094052299428
1135.32838218709,0.619398443835413
1140.172351069,0.619354956938106
1143.80030451395,0.619677866332373
1147.42395234476,0.619390055977142
1151.04329456145,0.618808388147985
1154.658331164,0.61939640946688
1158.26906215241,0.620256798576622
1161.8754875267,0.619705121640839
1165.47760728685,0.620539669028346
1169.07542143287,0.622058152178592
1173.86580933892,0.622971169495268
1177.45357705197,0.622857606684968
1181.03703915088,0.624777768170676
1184.61619563566,0.625056666875004
1188.19104650631,0.624136216264323
1191.76159176283,0.622156230447909
1195.32783140522,0.623381412739906
1198.88976543347,0.622984128692553
1202.44739384759,0.621104894223619
1207.18420077777,0.620779979808956
1210.73178275892,0.622357011876246
1214.27505912594,0.621709794995675
1217.81402987882,0.619809233046516
1221.34869501757,0.620235212702903
1224.87905454219,0.620000805269199
1228.40510845267,0.619979640797634
1231.92685674903,0.619927354058747
1235.44429943125,0.61921798930671
1240.12752538557,0.619859594092244
1243.63492163481,0.619457740070954
1247.13801226993,0.618951148201439
1250.63679729091,0.618897440752915
1254.13127669776,0.618568418090707
1257.62145049048,0.61885948209512
1261.10731866907,0.617476748010472
1264.58888123353,0.618605462011173
1268.06613818385,0.618869101681034
1272.6957831623,0.61870540194721
1276.16299367965,0.618673055162326
1279.62589858286,0.618620394333884
1283.08449787195,0.618774421784481
1286.5387915469,0.618587032680404
1289.98877960772,0.618349858608809
1293.43446205441,0.619436393885864
1296.87583888696,0.619267441004958
1300.31291010539,0.620116608587221
1304.88897410797,0.618752835675771
1308.31599889342,0.620233665355668
1311.73871806474,0.61996926540768
1315.15713162192,0.619995808637761
1318.57123956497,0.619718020909036
1321.98104189389,0.620181567435741
1325.38653860868,0.62090448221898
1328.78772970934,0.619915004646323
1332.18461519586,0.619522471521736
1336.70709822258,0.620269726649463
1340.09393727613,0.620878997296254
1343.47647071555,0.620961167253682
1346.85469854083,0.621662815912125
1350.22862075199,0.62136117509177
1353.59823734901,0.622055882491719
1356.9635483319,0.622638321476616
1360.32455370065,0.623887507578366
1363.68125345528,0.622792440853997
1368.15015550613,0.624570665644518
1371.49680882778,0.624438691003426
1374.8391565353,0.624187701287592
1378.17719862868,0.62447199977606
1381.51093510794,0.62468078941213
1384.84036597306,0.624969848079091
1388.16549122405,0.624707240295975
1391.48631086091,0.625804548966748
1394.80282488363,0.625431988753612
1399.21814595862,0.626851953354858
1402.52461354837,0.628407905999912
1405.82677552399,0.629172833193825
1409.12463188548,0.630084521321901
1412.41818263283,0.631219094673352
1415.70742776605,0.631094432597607
1418.99236728514,0.631587433932477
1422.2730011901,0.630197124956494
1425.54932948093,0.630704713993403
1429.91106958005,0.629531936272501
1433.1773514379,0.628390192020678
1436.43932768162,0.629201033143432
1439.6969983112,0.629067197181051
1442.95036332666,0.628039914852533
1446.19942272798,0.627926004286968
1449.44417651517,0.6289566438116
1452.68462468823,0.626917457491258
1456.99852463033,0.627523799736624
1460.22892637041,0.627833649540432
1463.45502249637,0.626939831760507
1466.67681300819,0.62898635543772
1469.89429790587,0.627836966510541
1473.10747718943,0.626827218647555
1476.31635085885,0.626888719066457
1479.52091891415,0.627054767336712
1482.72118135531,0.626528802161611
1486.98150032154,0.626657665619686
1490.17171632972,0.626239663399857
1493.35762672377,0.625643451583721
1496.53923150369,0.626080747500586
1499.71653066948,0.625703678585502
1502.88952422114,0.626055661282068
1506.05821215866,0.625496860115897
1509.22259448206,0.625116711222454
1512.38267119132,0.624746743672142
1516.58940918168,0.624452520000603
1519.73943945797,0.625163124800859
1522.88516412012,0.624042788561897
1526.02658316814,0.624165039227054
1529.16369660203,0.625117218975046
1532.29650442179,0.624327762402036
1535.42500662741,0.624638286833055
1538.54920321891,0.623944873999929
1541.66909419627,0.623667559409421
1545.82225121076,0.623897846770785
1548.93209575515,0.623516830271627
1552.0376346854,0.622858838254917
1555.13886800153,0.622038700538785
1558.23579570352,0.621404030438204
1561.32841779137,0.622835854495619
1564.4167342651,0.622356247512554
1567.50074512469,0.62175096241779
1570.58045037016,0.620952110990339
1574.68002640879,0.621779010664409
1577.74968522127,0.621417465359196
1580.81503841963,0.620113569874218
1583.87608600385,0.622489493869233
1586.93282797394,0.620560813239888
1589.9852643299,0.620725987010156
1593.03339507173,0.623536729511278
1596.07722019942,0.621734415337918
1599.11673971298,0.620636777917709
1603.16273477575,0.621872055061926
1606.19220785634,0.621175616613185
1609.21737532279,0.621549678336846
1612.23823717512,0.622047826151555
1615.25479341331,0.622556306128891
1618.26704403737,0.62431345304465
1621.27498904729,0.624110497122701
1624.27862844309,0.622711947290533
1627.27796222475,0.622769912168885
1631.27037631165,0.623742881922588
1634.25966366034,0.623065145257241
1637.2446453949,0.625442385258002
1640.22532151532,0.627262631390947
1643.20169202161,0.629220826484748
1646.17375691377,0.630848286497812
1649.1415161918,0.632942310969877
1652.10496985569,0.631228365708686
1655.06411790546,0.633410588061252
1659.00295101649,0.626939226292573
1661.95205263328,0.614769571966918
1664.89684863594,0.598558654210074
1667.83733902446,0.57136926072468
1670.77352379886,0.536202401055248
1673.70540295912,0.493119727887912
1676.63297650524,0.443984006914601
1679.55624443724,0.39725115939191
1682.4752067551,0.347227308573006
1686.36045889027,0.291637734875095
1689.26937477516,0.257928047208517
1692.17398504592,0.229144256673054
1695.07428970255,0.209727844555858
1697.97028874504,0.207412029250322
1700.8619821734,0.20312372379849
##END=
