##TITLE=Column 1
##JCAMP-DX=4.24
##DATA TYPE=INFRARED SPECTRUM
##Method:,Column 1,Built-In Reference,,,Model Name,NIR-X-XX
##Host Date-Time:,27/10/20 @ 14:35:59,9/7/19 @ 16:39:9,,,GUI Version,2.4.4
##Header Version:,1,1,,,Tiva Version,2.1.0.67
##System Temp (C):,53.97,27.52,,,DLPC Version,2.0.0
##Detector Temp (C),0,0,,,UUID,00:00:00:00:00:00:00:00
##Humidity (%):,13.86,73.2,,,Main Board Version,D
##Lamp PD:,2724,2274
##Shift Vector Coefficients:,-6.85384978732833,0.0551332794684546,-0.000110731550088635
##Pixel to Wavelength Coefficients:,1790.66412099084,-0.917492857141292,-0.000239200785115314
##Serial Number:,925R021,925R021
##Scan Config Name:,Column 1,SystemTest
##Scan Config Type:,Column,Column
##Start wavelength (nm):,900,900
##End wavelength (nm):,1700,1700
##Pattern Pixel Width (nm):,7.03,7.03
##Exposure (ms):,0.635,0.635
##Digital Resolution:,228,228
##NPOINTS=228
##Num Repeats:,6,30
##PGA Gain:,64,64
##Total Measurement Time in sec:,1.8171422
##XUNITS=Wavelength(nm)
##YUNITS=Reflectance(AU)
##FIRSTX=901.630473432251
##LASTX=1700.8619821734
##PEAK TABLE=X+(Y..Y)
901.630473432251,0.28771871420039
905.531115772228,0.285642181162686
909.427452498074,0.284483047160023
913.319483609787,0.281767402442313
917.207209107368,0.274520486707738
921.090628990817,0.267256449316984
924.969743260134,0.261255979868927
930.13519799724,0.258030039615812
934.004265833582,0.25985920660201
937.869028055792,0.262140194243108
941.72948466387,0.269036641135179
945.585635657816,0.271681228886572
949.43748103763,0.275758345752096
953.285020803312,0.27698552141404
957.128254954862,0.278298717797681
960.967183492279,0.276844982428739
966.07905725352,0.278072255134397
969.907939357962,0.277932742031529
973.732515848273,0.277586450129872
977.552786724452,0.276710942713827
981.368751986498,0.275797743066959
985.180411634413,0.275962927360862
988.987765668195,0.274674561584902
992.790814087846,0.275229858672589
996.589556893364,0.275557962420239
1001.64784967874,0.274245676659994
1005.43654605128,0.275395693097274
1009.22093680969,0.274679552826747
1013.00102195397,0.274536126732335
1016.77680148412,0.274404722487631
1020.54827540013,0.274088392437279
1024.31544370202,0.274951631748495
1028.07830638977,0.275624108670005
1031.83686346339,0.276520014142426
1036.8415752729,0.276617375011011
1040.59008591354,0.276733212861773
1044.33429094005,0.276386904690445
1048.07419035243,0.276723079515636
1051.80978415068,0.277157318748054
1055.5410723348,0.277678273202988
1059.26805490478,0.277883714949757
1062.99073186063,0.277595734602912
1066.70910320235,0.277496724192839
1071.66023403599,0.278309018341978
1075.36855894474,0.278533521144517
1079.07257823935,0.278406373347118
1082.77229191983,0.278934555968767
1086.46769998618,0.278922656629722
1090.1588024384,0.278273759872639
1093.84559927648,0.279516127887248
1097.52809050043,0.278914604347509
1101.20627611025,0.279261725366509
1106.10382596803,0.27989652470022
1109.77196514487,0.279128482404692
1113.43579870759,0.279814013074508
1117.09532665617,0.280256011101925
1120.75054899062,0.279982288377419
1124.40146571093,0.280354631014239
1128.04807681712,0.280491644119402
1131.69038230917,0.279463354819249
1135.32838218709,0.281194278500124
1140.172351069,0.280904468710446
1143.80030451395,0.281771847501091
1147.42395234476,0.281304435036897
1151.04329456145,0.281047516198704
1154.658331164,0.281841936085938
1158.26906215241,0.281656809595905
1161.8754875267,0.281167475718279
1165.47760728685,0.280907387634224
1169.07542143287,0.280705777260238
1173.86580933892,0.280667500353924
1177.45357705197,0.28073334551946
1181.03703915088,0.280647827758554
1184.61619563566,0.28009512521274
1188.19104650631,0.280604421488456
1191.76159176283,0.279926092854654
1195.32783140522,0.280591076386411
1198.88976543347,0.280535836504133
1202.44739384759,0.280802517001346
1207.18420077777,0.280770753550168
1210.73178275892,0.280374962619553
1214.27505912594,0.280245247644507
1217.81402987882,0.280638393879393
1221.34869501757,0.280189615367355
1224.87905454219,0.280700948380534
1228.40510845267,0.27982213349063
1231.92685674903,0.280226531772924
1235.44429943125,0.279669108972664
1240.12752538557,0.279341763143356
1243.63492163481,0.27944018578015
1247.13801226993,0.278982877642427
1250.63679729091,0.278485774245918
1254.13127669776,0.278655667491102
1257.62145049048,0.279133073513224
1261.10731866907,0.278390531851006
1264.58888123353,0.278057214712355
1268.06613818385,0.27790625240001
1272.6957831623,0.277169550076223
1276.16299367965,0.277648289836458
1279.62589858286,0.277087870693788
1283.08449787195,0.277047493933653
1286.5387915469,0.276712395165319
1289.98877960772,0.276666871619942
1293.43446205441,0.276385739246812
1296.87583888696,0.275976717174384
1300.31291010539,0.275336524315918
1304.88897410797,0.275926354143396
1308.31599889342,0.275183737579887
1311.73871806474,0.275543781734128
1315.15713162192,0.275533591918857
1318.57123956497,0.275122816328908
1321.98104189389,0.27538553224716
1325.38653860868,0.27496328027004
1328.78772970934,0.275203616986921
1332.18461519586,0.27506146285472
1336.70709822258,0.274264430103077
1340.09393727613,0.274463520146885
1343.47647071555,0.274490489835752
1346.85469854083,0.27343054637442
1350.22862075199,0.273837688558406
1353.59823734901,0.272942557132412
1356.9635483319,0.27346296905142
1360.32455370065,0.273123226970361
1363.68125345528,0.272957687138682
1368.15015550613,0.272453094345037
1371.49680882778,0.272145899864828
1374.8391565353,0.271719554815358
1378.17719862868,0.272145335347168
1381.51093510794,0.271973782724886
1384.84036597306,0.272243272588878
1388.16549122405,0.271510626969298
1391.48631086091,0.271275187276315
1394.80282488363,0.270354735538895
1399.21814595862,0.269405964991664
1402.52461354837,0.269033443395818
1405.82677552399,0.267955301736418
1409.12463188548,0.26686693588102
1412.41818263283,0.266980247046047
1415.70742776605,0.266909908602931
1418.99236728514,0.266922352210223
1422.2730011901,0.267331793955765
1425.54932948093,0.266910789584153
1429.91106958005,0.267393635726887
1433.1773514379,0.268271243866967
1436.43932768162,0.268309635915765
1439.6969983112,0.268785097812324
1442.95036332666,0.268889066577499
1446.19942272798,0.268981997955007
1449.44417651517,0.269355162686711
1452.68462468823,0.269562049114625
1456.99852463033,0.269418528410609
1460.22892637041,0.269676832096984
1463.45502249637,0.26929805877298
1466.67681300819,0.269455862218377
1469.89429790587,0.269889224572004
1473.10747718943,0.269710646257998
1476.31635085885,0.26972727476117
1479.52091891415,0.270190143019446
1482.72118135531,0.270309475571087
1486.98150032154,0.270285814004659
1490.17171632972,0.270841347474859
1493.35762672377,0.270279610189146
1496.53923150369,0.271105861326316
1499.71653066948,0.270670026129153
1502.88952422114,0.27051479420604
1506.05821215866,0.27055709194628
1509.22259448206,0.270064210559776
1512.38267119132,0.270552302569378
1516.58940918168,0.270139811691483
1519.73943945797,0.270248786814675
1522.88516412012,0.270572798468356
1526.02658316814,0.270393881835449
1529.16369660203,0.270372389104221
1532.29650442179,0.27002049549473
1535.42500662741,0.270260803873427
1538.54920321891,0.269691843278112
1541.66909419627,0.270068684455531
1545.82225121076,0.270623141165283
1548.93209575515,0.269421648799376
1552.0376346854,0.269861711306552
1555.13886800153,0.269037503063976
1558.23579570352,0.26957456704434
1561.32841779137,0.269150687862221
1564.4167342651,0.26876118180795
1567.50074512469,0.268895732859075
1570.58045037016,0.269610183294487
1574.68002640879,0.267899213517072
1577.74968522127,0.267897401974842
1580.81503841963,0.26832788537292
1583.87608600385,0.26710137446941
1586.93282797394,0.267917189878763
1589.9852643299,0.267416969897828
1593.03339507173,0.267221740199604
1596.07722019942,0.266680562694377
1599.11673971298,0.266393055377213
1603.16273477575,0.266164411592959
1606.19220785634,0.266055561086308
1609.21737532279,0.265538272669096
1612.23823717512,0.265845400033164
1615.25479341331,0.265843158760625
1618.26704403737,0.265897919436115
1621.27498904729,0.263921150465431
1624.27862844309,0.264325050131021
1627.27796222475,0.26419782335985
1631.27037631165,0.262474628408618
1634.25966366034,0.261868632829472
1637.2446453949,0.261724159794967
1640.22532151532,0.260054513145367
1643.20169202161,0.256929112371934
1646.17375691377,0.256439449406941
1649.1415161918,0.255382620957348
1652.10496985569,0.255119645053662
1655.06411790546,0.253827980020111
1659.00295101649,0.256177572536377
1661.95205263328,0.263066185986319
1664.89684863594,0.2756175322547
1667.83733902446,0.291843952336906
1670.77352379886,0.318444900219705
1673.70540295912,0.348544305120896
1676.63297650524,0.388871296454177
1679.55624443724,0.431101421003309
1682.4752067551,0.48000905335823
1686.36045889027,0.551651341050454
1689.26937477516,0.596213775059576
1692.17398504592,0.640252700542058
1695.07428970255,0.658956771414899
1697.97028874504,0.669487043892121
1700.8619821734,0.668336183728317
##END=
