##TITLE=Column 1
##JCAMP-DX=4.24
##DATA TYPE=INFRARED SPECTRUM
##Method:,Column 1,Built-In Reference,,,Model Name,NIR-X-XX
##Host Date-Time:,27/10/20 @ 14:35:51,9/7/19 @ 16:39:9,,,GUI Version,2.4.4
##Header Version:,1,1,,,Tiva Version,2.1.0.67
##System Temp (C):,53.96,27.52,,,DLPC Version,2.0.0
##Detector Temp (C),0,0,,,UUID,00:00:00:00:00:00:00:00
##Humidity (%):,13.86,73.2,,,Main Board Version,D
##Lamp PD:,2724,2274
##Shift Vector Coefficients:,-6.85384978732833,0.0551332794684546,-0.000110731550088635
##Pixel to Wavelength Coefficients:,1790.66412099084,-0.917492857141292,-0.000239200785115314
##Serial Number:,925R021,925R021
##Scan Config Name:,Column 1,SystemTest
##Scan Config Type:,Column,Column
##Start wavelength (nm):,900,900
##End wavelength (nm):,1700,1700
##Pattern Pixel Width (nm):,7.03,7.03
##Exposure (ms):,0.635,0.635
##Digital Resolution:,228,228
##NPOINTS=228
##Num Repeats:,6,30
##PGA Gain:,64,64
##Total Measurement Time in sec:,1.8041627
##XUNITS=Wavelength(nm)
##YUNITS=Absorbance(AU)
##FIRSTX=901.630473432251
##LASTX=1700.8619821734
##PEAK TABLE=X+(Y..Y)
901.630473432251,0.598768437743009
905.531115772228,0.605431536436379
909.427452498074,0.609922067033984
913.319483609787,0.614465127441375
917.207209107368,0.626332541007977
921.090628990817,0.637548462965147
924.969743260134,0.645596103591013
930.13519799724,0.655116650699937
934.004265833582,0.654818165456641
937.869028055792,0.646107581524391
941.72948466387,0.638112639986248
945.585635657816,0.631831894519459
949.43748103763,0.626919542290682
953.285020803312,0.622408744114037
957.128254954862,0.621067192590066
960.967183492279,0.621937628707899
966.07905725352,0.620086299997876
969.907939357962,0.620374230709848
973.732515848273,0.621575213035948
977.552786724452,0.621765022473522
981.368751986498,0.62015595557753
985.180411634413,0.623805974023578
988.987765668195,0.623018263761296
992.790814087846,0.622937286851054
996.589556893364,0.623476238679993
1001.64784967874,0.624706468485208
1005.43654605128,0.623357631143522
1009.22093680969,0.622641119552166
1013.00102195397,0.622169258062322
1016.77680148412,0.622259660241217
1020.54827540013,0.622863177157363
1024.31544370202,0.622353681822276
1028.07830638977,0.622973855368687
1031.83686346339,0.621641136021106
1036.8415752729,0.62260724220501
1040.59008591354,0.62159812041875
1044.33429094005,0.620307842175174
1048.07419035243,0.621004120373425
1051.80978415068,0.622196643106745
1055.5410723348,0.621332848495039
1059.26805490478,0.621295230315963
1062.99073186063,0.619887228592386
1066.70910320235,0.619910894136367
1071.66023403599,0.618363529343874
1075.36855894474,0.617766797867354
1079.07257823935,0.617799010143252
1082.77229191983,0.617614973131472
1086.46769998618,0.617376466790265
1090.1588024384,0.6160253362779
1093.84559927648,0.61694129380437
1097.52809050043,0.615209008311887
1101.20627611025,0.614970642130539
1106.10382596803,0.614339113412366
1109.77196514487,0.613852100273902
1113.43579870759,0.613784313819273
1117.09532665617,0.612519674021648
1120.75054899062,0.613167852452815
1124.40146571093,0.611471074946454
1128.04807681712,0.611613531851984
1131.69038230917,0.610290678898571
1135.32838218709,0.611355291824134
1140.172351069,0.611773669446835
1143.80030451395,0.609608605439922
1147.42395234476,0.610986179367255
1151.04329456145,0.609152601036899
1154.658331164,0.61026248136658
1158.26906215241,0.611631380855893
1161.8754875267,0.612549950175651
1165.47760728685,0.611465224604725
1169.07542143287,0.611700421289993
1173.86580933892,0.614273953939345
1177.45357705197,0.615558781388704
1181.03703915088,0.615896323352068
1184.61619563566,0.615157376994042
1188.19104650631,0.616185624274124
1191.76159176283,0.616607992476704
1195.32783140522,0.615318748812816
1198.88976543347,0.615626735969541
1202.44739384759,0.616534652444321
1207.18420077777,0.615917344879891
1210.73178275892,0.616469072837276
1214.27505912594,0.617209261802936
1217.81402987882,0.617039302489857
1221.34869501757,0.616643156729858
1224.87905454219,0.618032811947369
1228.40510845267,0.618173316496445
1231.92685674903,0.61754722445127
1235.44429943125,0.618126193348376
1240.12752538557,0.618289121234269
1243.63492163481,0.617998075413481
1247.13801226993,0.619267184236125
1250.63679729091,0.618732460321701
1254.13127669776,0.617948389670768
1257.62145049048,0.618368221467768
1261.10731866907,0.618403140499957
1264.58888123353,0.618480566048876
1268.06613818385,0.619246785943996
1272.6957831623,0.619228290773103
1276.16299367965,0.619440662704658
1279.62589858286,0.618692088851167
1283.08449787195,0.620291210591618
1286.5387915469,0.620361886675638
1289.98877960772,0.621606913103598
1293.43446205441,0.620828591918497
1296.87583888696,0.621283131681704
1300.31291010539,0.621305200992314
1304.88897410797,0.620852182720921
1308.31599889342,0.622063540619922
1311.73871806474,0.62224141009345
1315.15713162192,0.621615913106091
1318.57123956497,0.622139470780487
1321.98104189389,0.622253993500423
1325.38653860868,0.622927044197546
1328.78772970934,0.622777061761417
1332.18461519586,0.622875805474477
1336.70709822258,0.621774137973615
1340.09393727613,0.62346584408937
1343.47647071555,0.62339100773992
1346.85469854083,0.624419557558002
1350.22862075199,0.624530552705905
1353.59823734901,0.624279889544145
1356.9635483319,0.626066992639752
1360.32455370065,0.625118702133247
1363.68125345528,0.626087009425813
1368.15015550613,0.625533516054214
1371.49680882778,0.626202959629134
1374.8391565353,0.626617125597178
1378.17719862868,0.627893835117182
1381.51093510794,0.627733244679162
1384.84036597306,0.627565558566921
1388.16549122405,0.629037583352597
1391.48631086091,0.628866185449047
1394.80282488363,0.630669928689512
1399.21814595862,0.63049289742782
1402.52461354837,0.632355626581989
1405.82677552399,0.633850863781084
1409.12463188548,0.634470608636044
1412.41818263283,0.635447300476349
1415.70742776605,0.636192502693055
1418.99236728514,0.635832372868964
1422.2730011901,0.636558124293518
1425.54932948093,0.636664419100459
1429.91106958005,0.636225696372879
1433.1773514379,0.63601371823989
1436.43932768162,0.636290263192435
1439.6969983112,0.635903635759316
1442.95036332666,0.635915954895842
1446.19942272798,0.63469353857918
1449.44417651517,0.634972825717519
1452.68462468823,0.63515307091786
1456.99852463033,0.634509019097204
1460.22892637041,0.634682794339573
1463.45502249637,0.634793028405813
1466.67681300819,0.635576411583114
1469.89429790587,0.635479354010608
1473.10747718943,0.635414066184594
1476.31635085885,0.635248517889502
1479.52091891415,0.636162763624406
1482.72118135531,0.636155334902617
1486.98150032154,0.636042511566455
1490.17171632972,0.634512998107848
1493.35762672377,0.635541729100379
1496.53923150369,0.635135778678068
1499.71653066948,0.635321342294093
1502.88952422114,0.633561033934406
1506.05821215866,0.634353730367282
1509.22259448206,0.635249785875837
1512.38267119132,0.635021500406972
1516.58940918168,0.634971882832917
1519.73943945797,0.633363625034065
1522.88516412012,0.634321488681683
1526.02658316814,0.633529894164083
1529.16369660203,0.633757578796302
1532.29650442179,0.633041251535858
1535.42500662741,0.632327976793063
1538.54920321891,0.633093722190817
1541.66909419627,0.632787874517161
1545.82225121076,0.633370527423273
1548.93209575515,0.631269117535284
1552.0376346854,0.630901652110778
1555.13886800153,0.632492600671995
1558.23579570352,0.632008377920504
1561.32841779137,0.631864673758311
1564.4167342651,0.631306527802652
1567.50074512469,0.631291820187522
1570.58045037016,0.630151092256628
1574.68002640879,0.631998620362908
1577.74968522127,0.630620632909412
1580.81503841963,0.630458595725238
1583.87608600385,0.63231963641248
1586.93282797394,0.630574361727298
1589.9852643299,0.630585006703339
1593.03339507173,0.631761051416848
1596.07722019942,0.630541642216672
1599.11673971298,0.629669232123895
1603.16273477575,0.629932246850592
1606.19220785634,0.630146292242296
1609.21737532279,0.631476622110156
1612.23823717512,0.632197149321273
1615.25479341331,0.633519425951434
1618.26704403737,0.632661685716469
1621.27498904729,0.632357700864275
1624.27862844309,0.633309211528089
1627.27796222475,0.633607384281198
1631.27037631165,0.633374156335654
1634.25966366034,0.636440191326621
1637.2446453949,0.637878952796559
1640.22532151532,0.640973765769833
1643.20169202161,0.640056936913977
1646.17375691377,0.641866322747743
1649.1415161918,0.643020263327635
1652.10496985569,0.646089359219491
1655.06411790546,0.646315898430348
1659.00295101649,0.639897403504867
1661.95205263328,0.62687507372714
1664.89684863594,0.611615182431391
1667.83733902446,0.586815298810956
1670.77352379886,0.552107046955386
1673.70540295912,0.506855131206951
1676.63297650524,0.466173742457833
1679.55624443724,0.418189673368892
1682.4752067551,0.372677729487173
1686.36045889027,0.315322946200291
1689.26937477516,0.282033640942836
1692.17398504592,0.253799863365951
1695.07428970255,0.239364653425712
1697.97028874504,0.229163559072564
1700.8619821734,0.22905717776164
##END=
