##TITLE=Column 1
##JCAMP-DX=4.24
##DATA TYPE=INFRARED SPECTRUM
##Method:,Column 1,Built-In Reference,,,Model Name,NIR-X-XX
##Host Date-Time:,27/10/20 @ 14:36:25,9/7/19 @ 16:39:9,,,GUI Version,2.4.4
##Header Version:,1,1,,,Tiva Version,2.1.0.67
##System Temp (C):,54.01,27.52,,,DLPC Version,2.0.0
##Detector Temp (C),0,0,,,UUID,00:00:00:00:00:00:00:00
##Humidity (%):,13.86,73.2,,,Main Board Version,D
##Lamp PD:,2724,2274
##Shift Vector Coefficients:,-6.85384978732833,0.0551332794684546,-0.000110731550088635
##Pixel to Wavelength Coefficients:,1790.66412099084,-0.917492857141292,-0.000239200785115314
##Serial Number:,925R021,925R021
##Scan Config Name:,Column 1,SystemTest
##Scan Config Type:,Column,Column
##Start wavelength (nm):,900,900
##End wavelength (nm):,1700,1700
##Pattern Pixel Width (nm):,7.03,7.03
##Exposure (ms):,0.635,0.635
##Digital Resolution:,228,228
##NPOINTS=228
##Num Repeats:,6,30
##PGA Gain:,64,64
##Total Measurement Time in sec:,1.7881883
##XUNITS=Wavelength(nm)
##YUNITS=Reflectance(AU)
##FIRSTX=901.630473432251
##LASTX=1700.8619821734
##PEAK TABLE=X+(Y..Y)
901.630473432251,0.278867337047517
905.531115772228,0.275547543938711
909.427452498074,0.272801820798608
913.319483609787,0.270495781809777
917.207209107368,0.263058268024531
921.090628990817,0.256699048522838
924.969743260134,0.252694743245859
930.13519799724,0.247199817596261
934.004265833582,0.249332073012297
937.869028055792,0.253676058816941
941.72948466387,0.25922050548582
945.585635657816,0.261407072259419
949.43748103763,0.26454368772019
953.285020803312,0.264805543079077
957.128254954862,0.267899729040434
960.967183492279,0.26684027831156
966.07905725352,0.267435772233367
969.907939357962,0.266239668126401
973.732515848273,0.266388941907394
977.552786724452,0.266563152569374
981.368751986498,0.264586644946861
985.180411634413,0.265103810586161
988.987765668195,0.263031406509273
992.790814087846,0.263333043812738
996.589556893364,0.26330582319673
1001.64784967874,0.263778008248716
1005.43654605128,0.263252008387832
1009.22093680969,0.264214707941755
1013.00102195397,0.264460536084039
1016.77680148412,0.264086105934328
1020.54827540013,0.26351372107916
1024.31544370202,0.263922724326984
1028.07830638977,0.262540213492782
1031.83686346339,0.263744373284104
1036.8415752729,0.26355361806784
1040.59008591354,0.263964183613956
1044.33429094005,0.26469620754649
1048.07419035243,0.26478730831267
1051.80978415068,0.265161151728583
1055.5410723348,0.264702607719081
1059.26805490478,0.264671489638374
1062.99073186063,0.264267583225039
1066.70910320235,0.264519908885156
1071.66023403599,0.264400616422707
1075.36855894474,0.264942262607553
1079.07257823935,0.265287191949253
1082.77229191983,0.265851041822022
1086.46769998618,0.265129041294651
1090.1588024384,0.266610104052965
1093.84559927648,0.265526241685223
1097.52809050043,0.266379592153506
1101.20627611025,0.266664330354535
1106.10382596803,0.267177107823759
1109.77196514487,0.267716733870968
1113.43579870759,0.267879776306883
1117.09532665617,0.268212405409485
1120.75054899062,0.267463391507366
1124.40146571093,0.267295583530425
1128.04807681712,0.26677395422153
1131.69038230917,0.266969611526768
1135.32838218709,0.26858251011935
1140.172351069,0.269356188187845
1143.80030451395,0.270269522563071
1147.42395234476,0.269537493533777
1151.04329456145,0.269905151773905
1154.658331164,0.269789096036996
1158.26906215241,0.269594137935993
1161.8754875267,0.269812948352261
1165.47760728685,0.269591232346838
1169.07542143287,0.269272488724233
1173.86580933892,0.268280166108254
1177.45357705197,0.268566017042427
1181.03703915088,0.26819108035371
1184.61619563566,0.268039220155604
1188.19104650631,0.267836195845775
1191.76159176283,0.268941949161966
1195.32783140522,0.268919989824174
1198.88976543347,0.268626151465189
1202.44739384759,0.268618590514898
1207.18420077777,0.269383586362028
1210.73178275892,0.269344921704168
1214.27505912594,0.268624303331895
1217.81402987882,0.268719440740292
1221.34869501757,0.269862824717148
1224.87905454219,0.269623929380107
1228.40510845267,0.269175422789471
1231.92685674903,0.268468988056617
1235.44429943125,0.268666855632637
1240.12752538557,0.268001785430017
1243.63492163481,0.268382432520184
1247.13801226993,0.268648700901153
1250.63679729091,0.268356720568482
1254.13127669776,0.268560354708331
1257.62145049048,0.268596971409871
1261.10731866907,0.268485887126305
1264.58888123353,0.268135921714076
1268.06613818385,0.267852520615199
1272.6957831623,0.268061985147061
1276.16299367965,0.268226888709267
1279.62589858286,0.267433737415246
1283.08449787195,0.2671364127396
1286.5387915469,0.267120585633559
1289.98877960772,0.267186000443768
1293.43446205441,0.267086402574711
1296.87583888696,0.266825933160868
1300.31291010539,0.267129639359422
1304.88897410797,0.266342411688856
1308.31599889342,0.266622992496812
1311.73871806474,0.266467983430078
1315.15713162192,0.266177583953869
1318.57123956497,0.266660625635117
1321.98104189389,0.266283235148492
1325.38653860868,0.266596219902417
1328.78772970934,0.266393670272889
1332.18461519586,0.266445029846
1336.70709822258,0.266318335251743
1340.09393727613,0.266379905296237
1343.47647071555,0.265956259473826
1346.85469854083,0.265962596488671
1350.22862075199,0.265373707182039
1353.59823734901,0.265017728145679
1356.9635483319,0.265033610482826
1360.32455370065,0.264708264027261
1363.68125345528,0.265151353542249
1368.15015550613,0.264983592575557
1371.49680882778,0.264741045511581
1374.8391565353,0.264843666363571
1378.17719862868,0.26456609535067
1381.51093510794,0.264409190992794
1384.84036597306,0.264646950837288
1388.16549122405,0.2647300994129
1391.48631086091,0.264046079511644
1394.80282488363,0.263892232386455
1399.21814595862,0.263481898525684
1402.52461354837,0.262714239081137
1405.82677552399,0.262124338918929
1409.12463188548,0.261755435947648
1412.41818263283,0.261510956705318
1415.70742776605,0.261621935296678
1418.99236728514,0.262416402585695
1422.2730011901,0.261779869007682
1425.54932948093,0.262622902719293
1429.91106958005,0.263391624549156
1433.1773514379,0.262862115909055
1436.43932768162,0.263332160337823
1439.6969983112,0.263644808322152
1442.95036332666,0.264092927912538
1446.19942272798,0.264103686659404
1449.44417651517,0.264528562237819
1452.68462468823,0.264761349559134
1456.99852463033,0.264361555322234
1460.22892637041,0.264712898179354
1463.45502249637,0.265198199058398
1466.67681300819,0.264943119098395
1469.89429790587,0.265319793621429
1473.10747718943,0.265296851106789
1476.31635085885,0.264817176395135
1479.52091891415,0.265578208045181
1482.72118135531,0.2656503957883
1486.98150032154,0.265724322642812
1490.17171632972,0.266388537793165
1493.35762672377,0.266187978528149
1496.53923150369,0.266218717097584
1499.71653066948,0.26666511135996
1502.88952422114,0.266560380375458
1506.05821215866,0.266202962385684
1509.22259448206,0.266492895514797
1512.38267119132,0.266783325481298
1516.58940918168,0.267131678048575
1519.73943945797,0.266895864784015
1522.88516412012,0.266984658804889
1526.02658316814,0.267256489719751
1529.16369660203,0.266772313738157
1532.29650442179,0.267372735893627
1535.42500662741,0.266823480933331
1538.54920321891,0.267162950328791
1541.66909419627,0.267094700230119
1545.82225121076,0.267736427718872
1548.93209575515,0.26763552171526
1552.0376346854,0.268366896445601
1555.13886800153,0.267752490176708
1558.23579570352,0.268184890944321
1561.32841779137,0.268260535695866
1564.4167342651,0.26756974925584
1567.50074512469,0.267980866677971
1570.58045037016,0.268531036502441
1574.68002640879,0.268209370012591
1577.74968522127,0.268684492023387
1580.81503841963,0.267935034406485
1583.87608600385,0.268246947135959
1586.93282797394,0.267681605529565
1589.9852643299,0.268515639010017
1593.03339507173,0.26843040547124
1596.07722019942,0.268210704836528
1599.11673971298,0.268915157080177
1603.16273477575,0.268058473869926
1606.19220785634,0.268631189869023
1609.21737532279,0.269030547610652
1612.23823717512,0.267808523271302
1615.25479341331,0.267661091307924
1618.26704403737,0.268149076632089
1621.27498904729,0.267125853771002
1624.27862844309,0.266871528537712
1627.27796222475,0.266819146900429
1631.27037631165,0.267050970108798
1634.25966366034,0.26563948926457
1637.2446453949,0.263843235143947
1640.22532151532,0.262206166928463
1643.20169202161,0.259622438239557
1646.17375691377,0.259891638600088
1649.1415161918,0.258202811092748
1652.10496985569,0.255323998569525
1655.06411790546,0.25433483482256
1659.00295101649,0.257854840115013
1661.95205263328,0.263181734146792
1664.89684863594,0.276203529890846
1667.83733902446,0.293253169378095
1670.77352379886,0.319516039705193
1673.70540295912,0.352984226777537
1676.63297650524,0.396560543687428
1679.55624443724,0.441084782068201
1682.4752067551,0.491948169524133
1686.36045889027,0.566896668980858
1689.26937477516,0.607145832986152
1692.17398504592,0.650450415318021
1695.07428970255,0.680741972973589
1697.97028874504,0.690401903754627
1700.8619821734,0.684369655509406
##END=
